Size (bp),Intensity
0.58,1793.56
1.00,1504.26
2.00,997.98
2.42,540.50
2.84,261.50
3.26,136.36
3.68,113.65
4.10,90.94
4.52,75.38
4.94,70.38
5.36,70.01
5.79,70.76
6.21,69.50
6.63,65.16
7.05,58.88
7.47,51.64
7.89,43.69
8.31,35.77
8.73,28.82
9.15,25.91
9.57,22.99
9.99,18.01
10.41,14.18
10.83,12.44
11.25,12.72
11.67,13.50
12.09,13.43
12.52,12.25
12.94,10.27
13.36,8.05
13.78,6.48
14.20,5.96
14.62,6.22
15.04,6.47
15.46,7.87
15.88,9.39
16.30,10.03
16.72,10.25
17.14,11.29
17.56,13.18
17.98,14.74
18.40,14.95
18.82,13.79
19.24,11.94
19.67,9.87
20.09,8.97
20.51,8.06
20.93,6.97
21.35,6.33
21.77,5.55
22.19,4.95
22.61,4.98
23.03,5.06
23.45,4.76
23.87,4.62
24.29,4.66
24.71,4.08
25.13,3.34
25.55,2.60
25.97,1.02
26.39,0.54
26.82,1.10
27.24,1.46
27.66,1.01
28.08,0.26
28.50,-0.09
28.92,0.11
29.34,0.41
29.76,0.32
30.18,0.10
30.60,0.28
31.02,0.46
31.44,1.52
31.86,2.59
32.28,2.75
32.70,1.59
33.12,-0.28
33.55,-1.72
33.97,-2.11
34.39,-1.46
34.81,0.07
35.23,2.07
35.65,3.65
36.07,3.87
36.49,4.09
36.91,3.72
37.33,3.42
37.75,3.63
38.17,4.38
38.59,5.53
39.01,6.79
39.43,7.85
39.85,8.43
40.27,8.64
40.70,9.04
41.12,9.53
41.54,9.43
41.96,9.33
42.38,8.45
42.80,7.69
43.22,7.50
43.64,7.76
44.06,8.12
44.48,8.43
44.90,8.65
45.32,8.73
45.74,8.70
46.16,8.92
46.58,9.64
47.00,10.36
47.42,14.30
47.85,21.72
48.27,32.01
48.69,40.76
49.11,41.71
49.53,33.76
49.95,22.92
50.37,15.33
50.79,12.09
51.21,11.35
51.63,11.16
52.05,10.89
52.47,10.61
52.89,10.37
53.31,11.29
53.73,12.84
54.15,14.51
54.58,16.79
55.00,19.44
55.42,21.09
55.84,20.72
56.26,18.49
56.68,15.88
57.10,14.63
57.52,14.83
57.94,15.02
58.36,15.64
58.78,15.18
59.20,13.65
59.62,11.39
60.04,8.85
60.46,7.24
60.88,7.65
61.30,9.35
61.73,10.48
62.15,10.37
62.57,10.03
62.99,10.19
63.41,10.36
63.83,11.01
64.25,10.75
64.67,8.83
65.09,6.29
65.51,5.04
65.93,5.66
66.35,6.90
66.77,7.29
67.19,6.56
67.61,5.64
68.03,5.62
68.45,5.59
68.88,6.20
69.30,6.72
69.72,7.44
70.14,8.68
70.56,9.66
70.98,9.62
71.40,8.40
71.82,6.45
72.24,5.05
72.66,5.30
73.08,6.28
73.50,6.26
73.92,6.24
74.34,5.40
74.76,5.19
75.18,5.81
75.61,6.37
76.03,6.29
76.45,5.47
76.87,4.23
77.29,3.47
77.71,3.78
78.13,4.74
78.55,5.66
78.97,5.93
79.39,6.20
79.81,6.18
80.23,6.40
80.65,7.73
81.07,9.23
81.49,9.55
81.91,9.27
82.33,9.83
82.76,11.24
83.18,12.38
83.60,12.77
84.02,12.93
84.44,13.31
84.86,13.68
85.28,15.39
85.70,17.34
86.12,18.41
86.54,18.05
86.96,16.30
87.38,13.49
87.80,10.27
88.22,7.68
88.64,6.64
89.06,6.57
89.48,6.29
89.91,6.00
90.33,5.09
90.75,5.22
91.17,6.08
91.59,6.19
92.01,5.40
92.43,5.02
92.85,5.88
93.27,7.21
93.69,7.93
94.11,8.09
94.53,8.39
94.95,8.67
95.37,8.95
95.79,9.18
96.21,8.96
96.64,9.35
97.06,10.82
97.48,12.39
97.90,13.36
98.32,14.01
98.74,14.69
99.16,15.24
99.58,15.02
100.00,14.04
101.00,13.76
101.52,13.49
102.04,13.80
102.56,13.88
103.08,13.17
103.61,12.22
104.13,11.55
104.65,11.61
105.17,12.67
105.69,13.99
106.21,14.57
106.73,14.37
107.25,14.04
107.77,14.18
108.29,14.32
108.82,15.56
109.34,17.51
109.86,19.47
110.38,21.14
110.90,23.97
111.42,29.25
111.94,34.99
112.46,37.65
112.98,36.26
113.51,32.49
114.03,30.37
114.55,28.25
115.07,24.58
115.59,21.91
116.11,20.34
116.63,19.52
117.15,18.58
117.67,17.49
118.19,17.05
118.72,17.34
119.24,17.73
119.76,17.90
120.28,17.65
120.80,17.37
121.32,17.09
121.84,17.00
122.36,17.66
122.88,18.13
123.41,18.26
123.93,19.54
124.45,22.31
124.97,24.68
125.49,25.29
126.01,24.37
126.53,22.92
127.05,22.17
127.57,22.13
128.09,22.08
128.62,21.35
129.14,20.43
129.66,21.07
130.18,22.95
130.70,24.67
131.22,26.22
131.74,27.67
132.26,28.35
132.78,28.24
133.31,28.05
133.83,28.04
134.35,28.02
134.87,28.15
135.39,28.82
135.91,30.06
136.43,30.95
136.95,30.98
137.47,31.00
137.99,32.13
138.52,34.32
139.04,36.33
139.56,37.30
140.08,37.88
140.60,38.50
141.12,39.12
141.64,40.86
142.16,42.42
142.68,43.84
143.21,45.25
143.73,46.44
144.25,47.79
144.77,49.83
145.29,52.18
145.81,54.38
146.33,56.56
146.85,58.25
147.37,58.57
147.89,58.89
148.42,59.00
148.94,59.55
149.46,60.97
149.98,63.02
150.50,65.19
151.02,67.34
151.54,69.56
152.06,71.70
152.58,73.36
153.11,74.69
153.63,76.59
154.15,77.88
154.67,79.16
155.19,80.99
155.71,81.66
156.23,82.87
156.75,85.59
157.27,88.89
157.79,92.09
158.32,95.23
158.84,98.08
159.36,100.83
159.88,104.11
160.40,105.81
160.92,107.50
161.44,109.99
161.96,111.96
162.48,114.99
163.01,119.51
163.53,124.37
164.05,128.83
164.57,132.91
165.09,136.31
165.61,139.03
166.13,142.27
166.65,146.99
167.17,149.71
167.69,152.43
168.22,157.21
168.74,160.95
169.26,164.22
169.78,167.94
170.30,172.50
170.82,177.00
171.34,180.35
171.86,183.01
172.38,186.37
172.91,191.18
173.43,197.29
173.95,200.53
174.47,203.76
174.99,209.48
175.51,214.03
176.03,217.80
176.55,221.69
177.07,226.05
177.59,230.33
178.12,234.57
178.64,239.53
179.16,245.34
179.68,251.26
180.20,256.76
180.72,259.50
181.24,262.23
181.76,267.67
182.28,272.14
182.81,275.90
183.33,280.46
183.85,286.10
184.37,291.81
184.89,297.15
185.41,302.31
185.93,307.05
186.45,310.94
186.97,312.53
187.49,314.13
188.02,317.29
188.54,321.26
189.06,326.52
189.58,332.59
190.10,338.21
190.62,342.42
191.14,345.33
191.66,348.02
192.18,351.47
192.71,356.03
193.23,361.32
193.75,363.76
194.27,366.19
194.79,369.54
195.31,371.43
195.83,373.28
196.35,376.11
196.87,379.45
197.39,382.81
197.92,386.77
198.44,391.38
198.96,395.30
199.48,397.71
200.00,399.65
201.00,401.13
201.59,402.62
202.17,406.68
202.76,410.87
203.34,414.80
203.93,418.72
204.51,422.58
205.10,425.86
205.69,428.46
206.27,431.02
206.86,433.95
207.44,436.62
208.03,438.42
208.62,439.13
209.20,439.84
209.79,441.95
210.37,445.03
210.96,448.63
211.54,452.27
212.13,455.43
212.72,457.96
213.30,460.65
213.89,464.14
214.47,467.81
215.06,470.37
215.64,470.88
216.23,471.39
216.82,471.78
217.40,472.83
217.99,475.30
218.57,478.77
219.16,481.84
219.75,483.73
220.33,484.93
220.92,486.51
221.50,489.17
222.09,492.58
222.67,496.21
223.26,498.02
223.85,499.83
224.43,502.83
225.02,504.68
225.60,505.71
226.19,506.37
226.78,506.61
227.36,506.75
227.95,508.11
228.53,511.25
229.12,514.38
229.70,515.77
230.29,516.12
230.88,516.32
231.46,516.52
232.05,517.06
232.63,517.78
233.22,518.72
233.80,519.50
234.39,520.20
234.98,521.44
235.56,523.41
236.15,525.58
236.73,527.04
237.32,527.17
237.91,526.42
238.49,526.09
239.08,525.76
239.66,525.17
240.25,524.13
240.83,523.36
241.42,523.72
242.01,524.33
242.59,524.23
243.18,524.12
243.76,524.85
244.35,525.81
244.93,526.06
245.52,525.81
246.11,525.56
246.69,524.49
247.28,522.99
247.86,521.88
248.45,522.04
249.04,523.09
249.62,524.06
250.21,524.93
250.79,526.00
251.38,526.65
251.96,526.59
252.55,526.60
253.14,526.74
253.72,526.89
254.31,526.69
254.89,525.77
255.48,524.84
256.07,524.79
256.65,526.04
257.24,527.53
257.82,527.44
258.41,525.41
258.99,522.99
259.58,521.86
260.17,522.19
260.75,522.52
261.34,522.85
261.92,522.90
262.51,522.51
263.09,522.48
263.68,522.97
264.27,523.70
264.85,524.89
265.44,526.22
266.02,526.80
266.61,526.91
267.20,527.30
267.78,527.71
268.37,527.74
268.95,527.76
269.54,527.54
270.12,527.42
270.71,528.17
271.30,530.06
271.88,531.96
272.47,532.66
273.05,532.76
273.64,533.68
274.22,535.46
274.81,537.23
275.40,538.09
275.98,538.95
276.57,541.01
277.15,543.44
277.74,545.97
278.33,548.32
278.91,550.54
279.50,552.90
280.08,555.27
280.67,557.20
281.25,558.51
281.84,560.01
282.43,562.56
283.01,564.13
283.60,565.70
284.18,568.53
284.77,570.77
285.36,572.40
285.94,574.04
286.53,576.92
287.11,581.03
287.70,585.18
288.28,589.03
288.87,593.28
289.46,598.52
290.04,604.32
290.63,606.80
291.21,609.29
291.80,612.26
292.38,613.65
292.97,615.35
293.56,618.73
294.14,623.18
294.73,627.72
295.31,632.61
295.90,638.25
296.49,644.13
297.07,649.60
297.66,654.37
298.24,656.52
298.83,658.68
299.41,663.26
300.00,668.22
301.00,672.84
301.70,677.05
302.39,681.58
303.09,686.72
303.79,692.22
304.49,698.13
305.18,704.68
305.88,711.49
306.58,714.46
307.27,717.43
307.97,722.23
308.67,727.31
309.37,733.39
310.06,739.21
310.76,743.82
311.46,748.38
312.15,754.55
312.85,761.85
313.55,768.31
314.25,773.65
314.94,779.26
315.64,782.31
316.34,785.36
317.04,791.06
317.73,796.36
318.43,801.79
319.13,807.10
319.82,811.96
320.52,816.88
321.22,822.09
321.92,827.07
322.61,832.22
323.31,838.09
324.01,843.72
324.70,845.96
325.40,848.19
326.10,852.41
326.80,857.29
327.49,862.12
328.19,866.28
328.89,870.56
329.58,875.33
330.28,879.61
330.98,883.28
331.68,887.88
332.37,894.41
333.07,901.83
333.77,905.10
334.46,908.37
335.16,913.38
335.86,917.49
336.56,921.57
337.25,925.72
337.95,929.22
338.65,931.86
339.35,934.27
340.04,937.18
340.74,941.01
341.44,945.60
342.13,948.01
342.83,950.42
343.53,955.10
344.23,959.56
344.92,963.69
345.62,967.52
346.32,971.11
347.01,974.24
347.71,976.80
348.41,979.35
349.11,982.27
349.80,985.21
350.50,987.70
351.20,988.71
351.89,989.72
352.59,991.83
353.29,994.55
353.99,997.39
354.68,999.64
355.38,1001.21
356.08,1001.98
356.77,1002.31
357.47,1003.14
358.17,1004.47
358.87,1006.26
359.56,1009.16
360.26,1010.56
360.96,1011.97
361.65,1012.53
362.35,1011.50
363.05,1011.32
363.75,1012.15
364.44,1012.49
365.14,1012.48
365.84,1013.26
366.54,1014.34
367.23,1014.22
367.93,1013.03
368.63,1012.27
369.32,1012.32
370.02,1012.36
370.72,1012.59
371.42,1012.21
372.11,1011.03
372.81,1009.93
373.51,1010.01
374.20,1010.52
374.90,1010.13
375.60,1009.22
376.30,1008.72
376.99,1008.41
377.69,1008.14
378.39,1007.87
379.08,1007.60
379.78,1008.03
380.48,1008.37
381.18,1007.33
381.87,1004.02
382.57,999.14
383.27,994.99
383.96,992.85
384.66,991.58
385.36,989.38
386.06,985.71
386.75,983.63
387.45,981.54
388.15,978.22
388.85,976.25
389.54,975.28
390.24,974.63
390.94,973.52
391.63,971.57
392.33,969.05
393.03,966.26
393.73,963.21
394.42,959.86
395.12,955.40
395.82,952.40
396.51,949.39
397.21,943.45
397.91,939.47
398.61,937.04
399.30,934.40
400.00,930.71
401.00,926.93
401.72,924.14
402.45,921.68
403.17,918.45
403.89,914.55
404.61,912.64
405.34,910.74
406.06,907.43
406.78,904.63
407.50,901.91
408.23,898.49
408.95,894.32
409.67,890.25
410.39,886.54
411.12,882.31
411.84,876.86
412.56,871.24
413.28,867.05
414.01,865.59
414.73,864.13
415.45,860.93
416.18,856.74
416.90,852.24
417.62,848.09
418.34,844.12
419.07,840.20
419.79,836.69
420.51,833.66
421.23,830.63
421.96,827.12
422.68,822.77
423.40,820.19
424.12,817.60
424.85,812.34
425.57,807.70
426.29,803.64
427.01,800.19
427.74,797.55
428.46,794.83
429.18,791.07
429.91,786.77
430.63,782.45
431.35,777.79
432.07,772.82
432.80,770.20
433.52,767.58
434.24,761.91
434.96,756.02
435.69,750.10
436.41,744.77
437.13,741.19
437.85,738.98
438.58,736.32
439.30,732.79
440.02,729.26
440.74,726.08
441.47,724.62
442.19,723.16
442.91,720.28
443.64,716.61
444.36,711.54
445.08,705.71
445.80,700.12
446.53,695.01
447.25,690.29
447.97,685.87
448.69,681.56
449.42,677.58
450.14,674.83
450.86,674.30
451.58,673.77
452.31,673.27
453.03,671.59
453.75,667.92
454.47,662.34
455.20,655.47
455.92,648.72
456.64,643.48
457.36,639.81
458.09,636.89
458.81,634.44
459.53,632.47
460.26,631.37
460.98,630.26
461.70,627.01
462.42,622.76
463.15,617.58
463.87,611.83
464.59,607.23
465.31,605.13
466.04,604.25
466.76,602.08
467.48,597.48
468.20,591.41
468.93,585.84
469.65,583.81
470.37,581.78
471.09,578.48
471.82,574.80
472.54,570.88
473.26,567.44
473.99,564.13
474.71,560.18
475.43,556.04
476.15,552.99
476.88,551.29
477.60,549.57
478.32,548.17
479.04,546.76
479.77,543.53
480.49,540.55
481.21,536.88
481.93,532.00
482.66,527.60
483.38,525.29
484.10,524.32
484.82,522.93
485.55,520.65
486.27,518.17
486.99,515.59
487.72,513.83
488.44,512.06
489.16,507.47
489.88,503.38
490.61,500.99
491.33,499.21
492.05,496.24
492.77,492.22
493.50,488.59
494.22,485.47
494.94,481.42
495.66,476.30
496.39,471.91
497.11,470.64
497.83,469.37
498.55,467.45
499.28,464.52
500.00,460.89
501.00,457.62
502.01,454.65
503.02,451.66
504.03,448.91
505.04,445.97
506.05,442.04
507.06,438.04
508.07,435.88
509.08,435.71
510.09,435.54
511.10,435.01
512.11,432.86
513.12,429.25
514.13,425.17
515.14,421.69
516.15,419.30
517.16,417.40
518.17,414.85
519.18,411.18
520.19,406.89
521.20,405.00
522.21,403.12
523.22,400.83
524.23,399.75
525.24,398.74
526.26,396.85
527.27,393.97
528.28,390.58
529.29,387.04
530.30,383.37
531.31,379.84
532.32,377.22
533.33,375.83
534.34,375.27
535.35,374.72
536.36,372.60
537.37,369.43
538.38,366.19
539.39,363.26
540.40,360.27
541.41,357.10
542.42,353.68
543.43,350.17
544.44,347.03
545.45,344.33
546.46,342.16
547.47,341.52
548.48,340.88
549.49,339.83
550.50,337.98
551.51,335.68
552.52,333.81
553.53,332.43
554.54,331.39
555.55,330.03
556.56,327.52
557.57,324.03
558.58,319.94
559.59,315.19
560.60,312.87
561.61,310.54
562.62,307.01
563.63,304.87
564.64,304.06
565.65,303.86
566.66,302.69
567.67,300.06
568.68,297.11
569.69,294.21
570.70,290.85
571.71,287.77
572.72,286.93
573.73,286.09
574.74,285.25
575.76,283.95
576.77,281.83
577.78,279.55
578.79,278.07
579.80,277.52
580.81,277.07
581.82,276.07
582.83,274.49
583.84,272.10
584.85,268.61
585.86,266.58
586.87,264.55
587.88,261.16
588.89,259.35
589.90,258.77
590.91,258.15
591.92,256.82
592.93,255.01
593.94,252.74
594.95,250.15
595.96,247.89
596.97,246.01
597.98,243.86
598.99,242.60
600.00,241.33
601.00,238.89
602.18,236.82
603.36,235.10
604.54,233.42
605.71,231.39
606.89,229.14
608.07,227.01
609.25,225.27
610.43,224.25
611.61,223.89
612.79,222.86
613.96,221.36
615.14,219.87
616.32,215.87
617.50,213.15
618.68,212.00
619.86,210.67
621.04,208.87
622.21,208.16
623.39,208.52
624.57,208.10
625.75,206.54
626.93,205.29
628.11,204.91
629.29,204.54
630.46,202.93
631.64,200.25
632.82,197.87
634.00,196.97
635.18,197.38
636.36,197.63
637.54,195.96
638.71,192.19
639.89,188.15
641.07,185.51
642.25,184.15
643.43,183.58
644.61,183.01
645.79,181.89
646.96,181.45
648.14,181.45
649.32,180.46
650.50,178.00
651.68,175.54
652.86,174.46
654.04,174.34
655.21,173.95
656.39,173.23
657.57,172.56
658.75,172.00
659.93,171.44
661.11,169.49
662.29,167.38
663.46,165.88
664.64,165.02
665.82,164.42
667.00,163.46
668.18,161.68
669.36,159.67
670.54,158.53
671.71,157.88
672.89,156.33
674.07,155.12
675.25,153.91
676.43,151.62
677.61,149.71
678.79,148.34
679.96,147.76
681.14,147.25
682.32,145.72
683.50,142.98
684.68,139.94
685.86,138.07
687.04,137.66
688.21,137.49
689.39,137.32
690.57,135.91
691.75,133.60
692.93,131.57
694.11,131.19
695.29,132.11
696.46,132.61
697.64,132.00
698.82,130.77
700.00,129.07
701.00,126.90
702.98,124.76
704.96,123.92
706.94,123.07
708.92,121.72
710.90,120.70
712.88,120.11
714.86,119.08
716.84,117.07
718.82,115.25
720.80,114.49
722.78,113.96
724.76,113.17
726.74,112.60
728.72,112.37
730.70,112.12
732.68,111.86
734.66,110.66
736.64,109.24
738.62,108.68
740.60,109.32
742.58,109.96
744.56,109.27
746.54,107.71
748.52,106.73
750.50,106.44
752.48,105.66
754.46,104.20
756.44,103.72
758.42,103.24
760.40,102.97
762.38,102.12
764.36,100.46
766.34,99.46
768.32,99.21
770.30,98.22
772.28,96.34
774.26,94.55
776.24,92.69
778.22,90.55
780.20,89.84
782.18,89.13
784.16,89.15
786.14,89.95
788.12,90.29
790.10,89.32
792.08,87.40
794.06,85.98
796.04,85.78
798.02,86.17
800.00,86.66
801.00,87.07
803.36,86.88
805.71,86.45
808.07,86.02
810.43,85.09
812.79,84.20
815.14,83.08
817.50,81.98
819.86,81.33
822.21,80.82
824.57,79.96
826.93,78.71
829.29,77.29
831.64,76.23
834.00,75.82
836.36,75.59
838.71,75.36
841.07,74.26
843.43,73.02
845.79,71.99
848.14,71.38
850.50,71.68
852.86,72.54
855.21,72.85
857.57,72.42
859.93,71.89
862.29,71.53
864.64,71.03
867.00,70.46
869.36,69.89
871.71,68.02
874.07,66.33
876.43,65.74
878.79,65.66
881.14,65.09
883.50,64.31
885.86,64.06
888.21,63.67
890.57,61.98
892.93,59.69
895.29,59.19
897.64,58.69
900.00,59.41
901.00,60.38
904.67,60.41
908.33,59.84
912.00,59.48
915.67,59.54
919.33,59.62
923.00,59.14
926.67,57.92
930.33,56.74
934.00,56.54
937.67,56.70
941.33,56.87
945.00,56.35
948.67,54.78
952.33,53.01
956.00,51.50
959.67,50.37
963.33,50.16
967.00,50.97
970.67,51.85
974.33,51.38
978.00,49.34
981.67,47.46
985.33,47.32
989.00,47.18
992.67,47.45
996.33,47.15
1000.00,47.09
1001.00,47.50
1006.10,47.03
1011.21,45.65
1016.31,45.13
1021.41,45.99
1026.51,46.68
1031.62,46.00
1036.72,44.28
1041.82,43.53
1046.92,42.78
1052.03,42.22
1057.13,42.11
1062.23,41.97
1067.33,41.86
1072.44,41.69
1077.54,41.34
1082.64,40.92
1087.74,40.86
1092.85,41.62
1097.95,42.47
1103.05,42.23
1108.15,41.99
1113.26,40.60
1118.36,39.99
1123.46,40.33
1128.56,40.20
1133.67,38.98
1138.77,38.01
1143.87,38.75
1148.97,40.83
1154.08,42.30
1159.18,41.69
1164.28,40.08
1169.38,39.93
1174.49,39.77
1179.59,40.79
1184.69,41.37
1189.79,41.04
1194.90,40.36
1200.00,39.23
1201.00,37.59
1210.06,35.95
1219.12,34.91
1228.18,34.75
1237.24,34.94
1246.30,34.38
1255.36,33.72
1264.42,33.06
1273.48,31.85
1282.55,30.93
1291.61,30.31
1300.67,30.73
1309.73,32.05
1318.79,32.69
1327.85,32.07
1336.91,31.26
1345.97,30.88
1355.03,30.76
1364.09,31.18
1373.15,31.61
1382.21,32.03
1391.27,32.12
1400.33,31.13
1409.39,29.99
1418.45,29.49
1427.52,29.65
1436.58,29.85
1445.64,29.54
1454.70,29.20
1463.76,29.65
1472.82,30.59
1481.88,30.76
1490.94,30.92
1500.00,30.02
1501.00,28.39
1510.24,27.33
1519.48,27.22
1528.72,27.20
1537.96,27.06
1547.20,27.73
1556.44,29.42
1565.69,31.14
1574.93,31.83
1584.17,31.27
1593.41,30.81
1602.65,30.35
1611.89,29.90
1621.13,29.41
1630.37,28.20
1639.61,26.87
1648.85,26.36
1658.09,26.28
1667.33,25.98
1676.57,26.13
1685.81,27.31
1695.06,28.41
1704.30,28.18
1713.54,27.73
1722.78,27.29
1732.02,26.96
1741.26,26.78
1750.50,25.64
1759.74,23.98
1768.98,23.11
1778.22,23.44
1787.46,24.58
1796.70,25.74
1805.94,26.01
1815.19,25.32
1824.43,24.86
1833.67,24.40
1842.91,23.37
1852.15,22.17
1861.39,21.94
1870.63,23.45
1879.87,25.38
1889.11,26.18
1898.35,26.07
1907.59,25.88
1916.83,25.76
1926.07,25.49
1935.31,24.81
1944.56,24.12
1953.80,23.44
1963.04,21.95
1972.28,21.45
1981.52,21.80
1990.76,22.08
2000.00,22.60
2001.00,23.87
2018.22,24.84
2035.45,24.28
2052.67,22.57
2069.90,21.25
2087.12,21.19
2104.34,21.44
2121.57,21.69
2138.79,21.86
2156.02,22.18
2173.24,23.19
2190.47,24.04
2207.69,23.62
2224.91,22.40
2242.14,21.64
2259.36,21.70
2276.59,22.34
2293.81,23.22
2311.03,23.71
2328.26,23.57
2345.48,23.43
2362.71,22.90
2379.93,22.98
2397.16,23.53
2414.38,23.43
2431.60,22.26
2448.83,20.70
2466.05,19.85
2483.28,20.32
2500.50,21.40
2517.72,22.08
2534.95,22.34
2552.17,22.60
2569.40,23.24
2586.62,23.32
2603.84,22.48
2621.07,21.50
2638.29,21.16
2655.52,21.44
2672.74,21.97
2689.97,22.43
2707.19,22.74
2724.41,23.10
2741.64,23.39
2758.86,23.21
2776.09,23.04
2793.31,22.06
2810.53,21.50
2827.76,22.02
2844.98,22.53
2862.21,21.91
2879.43,20.68
2896.66,19.98
2913.88,19.95
2931.10,19.67
2948.33,18.56
2965.55,17.47
2982.78,17.55
3000.00,17.64
3001.00,18.95
3025.99,20.02
3050.98,20.35
3075.98,21.10
3100.97,22.76
3125.96,23.99
3150.95,23.62
3175.94,22.01
3200.93,20.47
3225.93,20.03
3250.92,20.80
