Size (bp),Intensity
0.58,1957.75
1.00,1584.10
2.00,1026.73
2.42,548.40
2.84,261.30
3.26,131.71
3.68,85.05
4.10,71.65
4.52,69.68
4.94,70.59
5.36,71.17
5.79,70.16
6.21,68.41
6.63,66.65
7.05,60.61
7.47,53.09
7.89,44.97
8.31,36.58
8.73,28.62
9.15,22.00
9.57,17.36
9.99,15.02
10.41,14.68
10.83,15.24
11.25,15.62
11.67,15.39
12.09,14.39
12.52,12.71
12.94,10.73
13.36,8.59
13.78,6.53
14.20,5.14
14.62,4.69
15.04,5.16
15.46,6.32
15.88,7.50
16.30,8.14
16.72,8.14
17.14,7.91
17.56,7.68
17.98,7.28
18.40,7.61
18.82,8.75
19.24,9.82
19.67,9.91
20.09,9.40
20.51,9.29
20.93,9.67
21.35,9.71
21.77,9.02
22.19,7.93
22.61,6.81
23.03,6.14
23.45,6.36
23.87,7.16
24.29,7.62
24.71,7.31
25.13,6.92
25.55,7.36
25.97,8.33
26.39,8.43
26.82,7.03
27.24,5.25
27.66,4.38
28.08,4.39
28.50,4.40
28.92,4.70
29.34,5.07
29.76,5.51
30.18,5.60
30.60,4.97
31.02,4.34
31.44,4.64
31.86,5.67
32.28,6.52
32.70,6.72
33.12,6.40
33.55,5.78
33.97,5.28
34.39,5.52
34.81,6.43
35.23,7.04
35.65,6.90
36.07,6.70
36.49,6.91
36.91,7.25
37.33,7.62
37.75,7.85
38.17,7.56
38.59,7.00
39.01,7.00
39.43,7.36
39.85,7.73
40.27,8.48
40.70,8.47
41.12,7.84
41.54,8.02
41.96,9.77
42.38,11.95
42.80,12.84
43.22,11.86
43.64,9.94
44.06,8.49
44.48,7.67
44.90,6.84
45.32,6.28
45.74,6.53
46.16,7.02
46.58,6.70
47.00,5.34
47.42,3.66
47.85,2.72
48.27,2.99
48.69,3.51
49.11,3.28
49.53,2.75
49.95,2.50
50.37,2.36
50.79,2.22
51.21,1.95
51.63,2.23
52.05,2.98
52.47,3.33
52.89,2.88
53.31,2.40
53.73,2.39
54.15,2.25
54.58,1.77
55.00,1.50
55.42,1.69
55.84,2.12
56.26,2.31
56.68,1.84
57.10,1.11
57.52,0.77
57.94,0.62
58.36,0.22
58.78,-0.28
59.20,-0.65
59.62,-0.68
60.04,0.20
60.46,1.84
60.88,2.95
61.30,2.86
61.73,2.77
62.15,1.80
62.57,0.81
62.99,0.54
63.41,1.55
63.83,2.89
64.25,3.18
64.67,2.65
65.09,2.42
65.51,2.78
65.93,3.53
66.35,4.38
66.77,4.76
67.19,4.32
67.61,3.37
68.03,2.63
68.45,2.63
68.88,2.98
69.30,2.95
69.72,2.86
70.14,3.17
70.56,3.41
70.98,3.29
71.40,3.37
71.82,3.80
72.24,3.85
72.66,3.91
73.08,3.41
73.50,2.59
73.92,1.57
74.34,0.61
74.76,0.50
75.18,1.69
75.61,3.16
76.03,3.62
76.45,3.12
76.87,2.58
77.29,2.54
77.71,2.73
78.13,2.45
78.55,1.69
78.97,1.24
79.39,1.47
79.81,2.05
80.23,2.70
80.65,3.29
81.07,3.58
81.49,3.08
81.91,1.41
82.33,-0.76
82.76,-1.63
83.18,-1.09
83.60,-0.55
84.02,1.17
84.44,2.66
84.86,4.10
85.28,5.03
85.70,4.78
86.12,3.82
86.54,3.21
86.96,3.60
87.38,4.32
87.80,4.08
88.22,2.94
88.64,2.10
89.06,1.77
89.48,1.26
89.91,0.58
90.33,0.33
90.75,0.46
91.17,0.31
91.59,-0.41
92.01,-1.36
92.43,-2.06
92.85,-2.00
93.27,-1.18
93.69,-0.93
94.11,-1.49
94.53,-2.05
94.95,-3.09
95.37,-2.64
95.79,-1.46
96.21,-1.08
96.64,-1.61
97.06,-1.67
97.48,-0.61
97.90,0.19
98.32,-0.49
98.74,-1.74
99.16,-1.83
99.58,-0.29
100.00,1.51
101.00,1.73
101.52,0.33
102.04,-0.78
102.56,-0.11
103.08,1.60
103.61,2.34
104.13,1.39
104.65,0.08
105.17,-0.18
105.69,0.51
106.21,1.42
106.73,2.39
107.25,2.88
107.77,3.37
108.29,3.82
108.82,3.47
109.34,2.70
109.86,1.32
110.38,-0.74
110.90,-2.17
111.42,-1.71
111.94,-0.13
112.46,0.96
112.98,1.09
113.51,0.80
114.03,0.85
114.55,1.54
115.07,2.21
115.59,2.01
116.11,0.97
116.63,-0.01
117.15,0.07
117.67,1.34
118.19,2.80
118.72,3.22
119.24,2.11
119.76,0.16
120.28,-1.15
120.80,-1.06
121.32,-0.97
121.84,0.45
122.36,2.38
122.88,3.41
123.41,2.40
123.93,0.19
124.45,-1.17
124.97,-1.11
125.49,-0.99
126.01,-1.60
126.53,-2.02
127.05,-1.66
127.57,-1.04
128.09,-0.52
128.62,0.15
129.14,1.03
129.66,1.53
130.18,1.11
130.70,0.24
131.22,0.10
131.74,1.20
132.26,2.70
132.78,3.35
133.31,2.85
133.83,2.20
134.35,2.24
134.87,2.29
135.39,2.86
135.91,3.06
136.43,2.43
136.95,0.74
137.47,-1.58
137.99,-3.17
138.52,-2.94
139.04,-1.37
139.56,0.09
140.08,0.60
140.60,0.37
141.12,-0.14
141.64,-0.67
142.16,-1.15
142.68,-1.55
143.21,-1.56
143.73,-0.89
144.25,0.18
144.77,1.05
145.29,1.37
145.81,1.11
146.33,0.72
146.85,0.64
147.37,0.96
147.89,1.31
148.42,1.65
148.94,2.22
149.46,1.73
149.98,0.35
150.50,-0.67
151.02,-0.71
151.54,-0.44
152.06,-0.53
152.58,-0.78
153.11,-0.59
153.63,0.09
154.15,0.75
154.67,1.08
155.19,1.27
155.71,1.54
156.23,1.70
156.75,1.72
157.27,1.95
157.79,2.16
158.32,1.83
158.84,1.49
159.36,1.73
159.88,2.26
160.40,2.83
160.92,3.33
161.44,3.42
161.96,3.51
162.48,3.54
163.01,4.12
163.53,5.46
164.05,6.83
164.57,7.43
165.09,7.20
165.61,6.59
166.13,5.94
166.65,5.52
167.17,5.49
167.69,5.87
168.22,6.90
168.74,8.56
169.26,9.93
169.78,10.09
170.30,9.48
170.82,9.65
171.34,11.11
171.86,12.49
172.38,13.04
172.91,13.60
173.43,14.48
173.95,15.09
174.47,15.50
174.99,15.70
175.51,15.90
176.03,15.54
176.55,14.08
177.07,12.47
177.59,11.41
178.12,10.44
178.64,9.34
179.16,8.61
179.68,8.52
180.20,8.57
180.72,7.90
181.24,6.21
181.76,4.34
182.28,3.27
182.81,3.17
183.33,3.96
183.85,5.29
184.37,6.37
184.89,7.03
185.41,7.91
185.93,8.74
186.45,8.40
186.97,7.04
187.49,6.23
188.02,6.71
188.54,7.18
189.06,7.66
189.58,8.34
190.10,8.85
190.62,9.83
191.14,11.70
191.66,14.22
192.18,16.85
192.71,19.34
193.23,21.39
193.75,22.81
194.27,23.64
194.79,23.94
195.31,24.31
195.83,25.29
196.35,26.14
196.87,25.75
197.39,24.35
197.92,22.90
198.44,21.83
198.96,20.88
199.48,20.03
200.00,19.88
201.00,20.46
201.59,20.86
202.17,20.72
202.76,20.88
203.34,21.38
203.93,21.88
204.51,23.65
205.10,26.15
205.69,28.69
206.27,29.94
206.86,29.63
207.44,28.23
208.03,25.90
208.62,23.45
209.20,22.16
209.79,21.90
210.37,21.49
210.96,20.46
211.54,18.98
212.13,17.52
212.72,16.97
213.30,17.65
213.89,18.56
214.47,18.70
215.06,17.70
215.64,15.65
216.23,13.43
216.82,12.00
217.40,11.31
217.99,11.33
218.57,11.82
219.16,12.30
219.75,13.51
220.33,13.65
220.92,12.64
221.50,11.42
222.09,10.55
222.67,10.13
223.26,10.39
223.85,11.26
224.43,12.31
225.02,13.11
225.60,13.34
226.19,12.76
226.78,11.68
227.36,11.13
227.95,11.99
228.53,13.85
229.12,15.28
229.70,15.33
230.29,14.33
230.88,13.36
231.46,13.13
232.05,13.45
232.63,13.75
233.22,13.94
233.80,14.26
234.39,14.58
234.98,15.93
235.56,17.42
236.15,18.59
236.73,19.77
237.32,21.55
237.91,23.80
238.49,25.56
239.08,26.51
239.66,27.44
240.25,28.63
240.83,29.47
241.42,29.84
242.01,30.39
242.59,31.20
243.18,31.75
243.76,32.40
244.35,33.88
244.93,36.00
245.52,38.20
246.11,40.39
246.69,42.36
247.28,43.71
247.86,44.26
248.45,44.12
249.04,43.94
249.62,43.75
250.21,43.97
250.79,44.91
251.38,45.67
251.96,46.37
252.55,49.00
253.14,55.05
253.72,63.79
254.31,73.14
254.89,81.62
255.48,88.88
256.07,94.55
256.65,97.83
257.24,98.21
257.82,96.72
258.41,95.95
258.99,97.78
259.58,101.87
260.17,107.59
260.75,115.61
261.34,127.05
261.92,142.88
262.51,163.87
263.09,190.74
263.68,224.20
264.27,243.94
264.85,263.69
265.44,306.58
266.02,349.27
266.61,389.40
267.20,427.56
267.78,466.51
268.37,508.13
268.95,551.16
269.54,592.48
270.12,631.25
270.71,673.06
271.30,730.14
271.88,817.44
272.47,946.66
273.05,1119.09
273.64,1321.30
274.22,1530.38
274.81,1726.80
275.40,1904.09
275.98,2069.26
276.57,2238.04
277.15,2430.30
277.74,2668.91
278.33,2985.34
278.91,3429.71
279.50,3746.86
280.08,4064.01
280.67,4917.74
281.25,5953.89
281.84,7149.26
282.43,8680.99
283.01,10963.97
283.60,14265.31
284.18,18112.74
284.77,21172.93
285.36,21954.71
285.94,19867.01
286.53,15698.92
287.11,11025.24
287.70,7122.85
288.28,4426.52
288.87,2755.48
289.46,1758.95
290.04,1161.17
290.63,801.60
291.21,593.88
291.80,484.36
292.38,433.86
292.97,413.88
293.56,406.27
294.14,401.81
294.73,396.39
295.31,391.90
295.90,387.42
296.49,372.28
297.07,349.04
297.66,317.96
298.24,281.96
298.83,245.61
299.41,213.17
300.00,186.68
301.00,165.95
301.70,150.34
302.39,139.36
303.09,132.42
303.79,129.30
304.49,129.66
305.18,131.53
305.88,131.83
306.58,128.92
307.27,122.77
307.97,113.55
308.67,102.53
309.37,93.08
310.06,88.86
310.76,90.63
311.46,95.23
312.15,97.90
312.85,96.75
313.55,95.61
314.25,88.17
314.94,77.13
315.64,64.41
316.34,51.92
317.04,40.83
317.73,31.48
318.43,24.33
319.13,19.47
319.82,15.79
320.52,12.34
321.22,9.67
321.92,8.63
322.61,8.87
323.31,9.23
324.01,9.20
324.70,8.97
325.40,8.36
326.10,7.19
326.80,6.06
327.49,5.64
328.19,5.98
328.89,6.58
329.58,6.58
330.28,5.71
330.98,5.25
331.68,4.79
332.37,4.44
333.07,4.24
333.77,3.97
334.46,4.01
335.16,4.35
335.86,4.48
336.56,3.89
337.25,2.88
337.95,2.35
338.65,2.39
339.35,2.11
340.04,1.20
340.74,0.32
341.44,0.02
342.13,0.51
342.83,1.81
343.53,3.19
344.23,3.33
344.92,2.08
345.62,0.70
346.32,0.26
347.01,0.98
347.71,2.30
348.41,2.94
349.11,2.44
349.80,1.93
350.50,-0.10
351.20,-1.56
351.89,-1.83
352.59,-1.37
353.29,-0.54
353.99,0.73
354.68,2.02
355.38,2.55
356.08,2.44
356.77,2.62
357.47,3.39
358.17,3.84
358.87,2.81
359.56,0.55
360.26,-1.04
360.96,-0.74
361.65,0.61
362.35,1.71
363.05,2.13
363.75,1.99
364.44,1.51
365.14,1.25
365.84,2.00
366.54,3.46
367.23,3.80
367.93,4.15
368.63,3.56
369.32,2.53
370.02,1.85
370.72,1.54
371.42,0.99
372.11,0.14
372.81,-0.10
373.51,0.42
374.20,0.71
374.90,0.52
375.60,0.26
376.30,-0.17
376.99,-0.81
377.69,-0.92
378.39,0.23
379.08,2.01
379.78,3.01
380.48,2.81
381.18,2.18
381.87,1.98
382.57,2.26
383.27,2.11
383.96,1.25
384.66,0.85
385.36,1.10
386.06,1.35
386.75,1.68
387.45,1.34
388.15,1.08
388.85,1.32
389.54,1.55
390.24,1.06
390.94,-0.41
391.63,-2.09
392.33,-2.78
393.03,-2.07
393.73,-0.71
394.42,0.39
395.12,0.69
395.82,0.19
396.51,-0.39
397.21,-0.37
397.91,0.12
398.61,0.76
399.30,1.36
400.00,1.75
401.00,2.13
401.72,2.46
402.45,2.30
403.17,1.77
403.89,1.61
404.61,1.46
405.34,1.51
406.06,1.74
406.78,1.61
407.50,0.44
408.23,-1.06
408.95,-1.43
409.67,-0.71
410.39,0.19
411.12,1.13
411.84,2.08
412.56,2.43
413.28,1.82
414.01,0.79
414.73,0.31
415.45,0.64
416.18,1.21
416.90,1.85
417.62,2.58
418.34,2.66
419.07,1.99
419.79,1.52
420.51,1.57
421.23,1.78
421.96,2.30
422.68,3.41
423.40,4.04
424.12,4.66
424.85,5.07
425.57,4.17
426.29,2.70
427.01,1.88
427.74,2.11
428.46,2.63
429.18,2.28
429.91,1.16
430.63,0.38
431.35,0.07
432.07,-0.32
432.80,-0.47
433.52,-0.02
434.24,0.66
434.96,1.43
435.69,2.54
436.41,3.71
437.13,4.39
437.85,4.44
438.58,4.11
439.30,3.62
440.02,3.12
440.74,2.79
441.47,2.42
442.19,2.14
442.91,1.86
443.64,1.74
444.36,2.17
445.08,2.00
445.80,0.88
446.53,-0.20
447.25,-0.70
447.97,-0.52
448.69,0.62
449.42,2.14
450.14,2.78
450.86,2.48
451.58,2.21
452.31,2.39
453.03,2.56
453.75,2.72
454.47,3.38
455.20,4.40
455.92,4.87
456.64,4.39
457.36,3.69
458.09,3.66
458.81,4.12
459.53,4.20
460.26,3.67
460.98,3.40
461.70,3.13
462.42,3.07
463.15,3.09
463.87,2.64
464.59,2.61
465.31,4.17
466.04,6.11
466.76,6.16
467.48,4.64
468.20,3.76
468.93,4.11
469.65,4.19
470.37,3.05
471.09,1.56
471.82,1.26
472.54,2.35
473.26,3.18
473.99,2.63
474.71,1.51
475.43,1.26
476.15,2.39
476.88,3.89
477.60,4.52
478.32,4.37
479.04,3.95
479.77,3.57
480.49,3.19
481.21,2.30
481.93,1.74
482.66,1.31
483.38,0.50
484.10,-0.58
484.82,-1.09
485.55,-0.42
486.27,0.95
486.99,1.59
487.72,0.62
488.44,-1.22
489.16,-2.38
489.88,-2.05
490.61,-0.71
491.33,0.41
492.05,0.80
492.77,1.01
493.50,1.01
494.22,0.39
494.94,-0.49
495.66,-1.01
496.39,-1.01
497.11,-0.60
497.83,-0.25
498.55,-0.21
499.28,-0.16
500.00,-0.03
501.00,0.15
502.01,0.16
503.02,-0.18
504.03,-1.02
505.04,-1.70
506.05,-1.17
507.06,0.27
508.07,1.12
509.08,0.86
510.09,0.49
511.10,0.82
512.11,1.32
513.12,1.07
514.13,0.22
515.14,-0.25
516.15,0.02
517.16,0.16
518.17,-0.49
519.18,-1.31
520.19,-1.47
521.20,-1.20
522.21,-1.15
523.22,-1.27
524.23,-1.26
525.24,-1.25
526.26,-1.02
527.27,-0.64
528.28,-0.37
529.29,-0.08
530.30,0.67
531.31,1.27
532.32,0.63
533.33,-0.71
534.34,-1.49
535.35,-1.44
536.36,-0.92
537.37,-0.36
538.38,0.01
539.39,0.23
540.40,0.40
541.41,0.62
542.42,0.85
543.43,0.88
544.44,0.76
545.45,0.64
546.46,0.87
547.47,1.64
548.48,2.22
549.49,2.04
550.50,1.34
551.51,0.86
552.52,0.39
553.53,-0.53
554.54,-1.01
555.55,-1.07
556.56,-0.94
557.57,-0.63
558.58,-0.25
559.59,-0.11
560.60,-0.04
561.61,0.31
562.62,0.81
563.63,1.24
564.64,1.80
565.65,2.68
566.66,3.39
567.67,3.36
568.68,2.88
569.69,2.68
570.70,2.69
571.71,2.34
572.72,1.79
573.73,1.52
574.74,1.24
575.76,0.79
576.77,0.74
577.78,1.16
578.79,1.57
579.80,2.62
580.81,2.77
581.82,2.26
582.83,2.27
583.84,2.92
584.85,3.62
585.86,4.10
586.87,3.71
587.88,2.29
588.89,0.93
589.90,0.56
590.91,1.02
591.92,1.54
592.93,1.41
593.94,0.70
594.95,-0.08
595.96,-0.45
596.97,-0.07
597.98,0.74
598.99,1.26
600.00,1.56
601.00,2.06
602.18,2.32
603.36,1.99
604.54,1.92
605.71,1.85
606.89,2.12
608.07,1.78
609.25,0.79
610.43,0.63
611.61,1.82
612.79,2.89
613.96,2.56
615.14,1.33
616.32,0.52
617.50,0.71
618.68,1.11
619.86,0.47
621.04,-1.12
622.21,-2.32
623.39,-2.49
624.57,-2.11
625.75,-1.61
626.93,-1.00
628.11,-0.07
629.29,1.21
630.46,2.14
631.64,1.86
632.82,0.82
634.00,0.04
635.18,-0.32
636.36,-0.68
637.54,-1.89
638.71,-2.72
639.89,-2.04
641.07,-0.31
642.25,1.27
643.43,1.92
644.61,1.56
645.79,0.75
646.96,0.11
648.14,0.02
649.32,0.62
650.50,1.61
651.68,2.61
652.86,3.72
654.04,4.87
655.21,5.48
656.39,5.33
657.57,4.42
658.75,2.79
659.93,1.24
661.11,1.01
662.29,1.89
663.46,2.19
664.64,1.08
665.82,0.57
667.00,0.05
668.18,0.68
669.36,2.09
670.54,2.61
671.71,2.35
672.89,2.26
674.07,2.35
675.25,2.28
676.43,2.39
677.61,3.19
678.79,4.46
679.96,5.70
681.14,6.64
682.32,6.94
683.50,6.14
684.68,4.51
685.86,3.15
687.04,2.97
688.21,3.89
689.39,5.21
690.57,6.07
691.75,6.02
692.93,5.47
694.11,5.36
695.29,5.91
696.46,6.05
697.64,6.19
698.82,5.84
700.00,5.39
701.00,4.89
702.98,4.46
704.96,5.01
706.94,6.16
708.92,6.12
710.90,4.89
712.88,4.49
714.86,5.52
716.84,6.37
718.82,5.92
720.80,4.95
722.78,4.63
724.76,5.27
726.74,6.35
728.72,6.93
730.70,6.67
732.68,6.06
734.66,5.66
736.64,5.69
738.62,6.17
740.60,6.62
742.58,6.30
744.56,5.10
746.54,4.50
748.52,3.90
750.50,3.48
752.48,3.93
754.46,4.89
756.44,5.58
758.42,5.33
760.40,4.20
762.38,2.90
764.36,2.44
766.34,2.99
768.32,3.57
770.30,3.51
772.28,3.04
774.26,2.30
776.24,1.39
778.22,0.93
780.20,1.01
782.18,1.01
784.16,1.05
786.14,1.72
788.12,2.32
790.10,1.99
792.08,1.87
794.06,3.17
796.04,4.89
798.02,5.13
800.00,5.36
801.00,4.60
803.36,3.81
805.71,3.53
808.07,3.38
810.43,3.18
812.79,3.29
815.14,3.54
817.50,3.23
819.86,2.42
822.21,1.65
824.57,0.93
826.93,0.59
829.29,1.19
831.64,2.08
834.00,2.33
836.36,2.34
838.71,2.56
841.07,2.50
843.43,1.99
845.79,1.69
848.14,2.10
850.50,2.76
852.86,2.64
855.21,1.61
857.57,1.28
859.93,0.94
862.29,1.51
864.64,2.51
867.00,2.59
869.36,1.53
871.71,0.24
874.07,-0.57
876.43,-1.10
878.79,-2.00
881.14,-2.97
883.50,-2.61
885.86,-0.87
888.21,0.48
890.57,0.57
892.93,0.11
895.29,-0.36
897.64,-0.85
900.00,-1.62
901.00,-2.57
904.67,-3.00
908.33,-2.61
912.00,-1.99
915.67,-1.48
919.33,-0.89
923.00,-0.49
926.67,-0.48
930.33,-0.48
934.00,-0.73
937.67,-1.13
941.33,-1.68
945.00,-2.00
948.67,-1.51
952.33,-0.26
956.00,0.79
959.67,0.95
963.33,0.62
967.00,0.41
970.67,0.22
974.33,-0.20
978.00,-0.58
981.67,-0.38
985.33,0.41
989.00,1.02
992.67,0.77
996.33,-0.18
1000.00,-0.92
1001.00,-1.12
1006.10,-1.31
1011.21,-1.31
1016.31,-0.38
1021.41,1.00
1026.51,1.30
1031.62,1.59
1036.72,1.25
1041.82,0.87
1046.92,0.79
1052.03,0.62
1057.13,0.27
1062.23,0.03
1067.33,0.05
1072.44,0.04
1077.54,-0.38
1082.64,-0.92
1087.74,-1.01
1092.85,-0.95
1097.95,-1.30
1103.05,-1.74
1108.15,-1.70
1113.26,-1.37
1118.36,-1.14
1123.46,-1.23
1128.56,-1.68
1133.67,-1.99
1138.77,-1.65
1143.87,-1.03
1148.97,-0.70
1154.08,-0.75
1159.18,-0.93
1164.28,-1.11
1169.38,-1.50
1174.49,-1.50
1179.59,-1.12
1184.69,-0.71
1189.79,-0.75
1194.90,-1.75
1200.00,-3.04
1201.00,-3.06
1210.06,-1.52
1219.12,0.50
1228.18,2.44
1237.24,4.00
1246.30,4.32
1255.36,2.93
1264.42,0.58
1273.48,-1.58
1282.55,-2.64
1291.61,-2.40
1300.67,-1.65
1309.73,-1.30
1318.79,-1.39
1327.85,-1.56
1336.91,-1.70
1345.97,-1.79
1355.03,-2.03
1364.09,-2.36
1373.15,-2.69
1382.21,-3.17
1391.27,-2.56
1400.33,-1.15
1409.39,0.03
1418.45,0.69
1427.52,0.94
1436.58,0.80
1445.64,0.82
1454.70,1.59
1463.76,2.45
1472.82,2.30
1481.88,1.51
1490.94,1.46
1500.00,2.43
1501.00,3.33
1510.24,3.38
1519.48,2.85
1528.72,2.34
1537.96,2.04
1547.20,1.44
1556.44,-0.03
1565.69,-1.71
1574.93,-2.24
1584.17,-1.19
1593.41,-0.36
1602.65,0.48
1611.89,1.95
1621.13,3.41
1630.37,4.84
1639.61,5.34
1648.85,4.53
1658.09,3.38
1667.33,3.02
1676.57,3.35
1685.81,3.18
1695.06,1.97
1704.30,0.83
1713.54,0.85
1722.78,1.46
1732.02,1.92
1741.26,2.61
1750.50,3.75
1759.74,4.38
1768.98,3.94
1778.22,3.56
1787.46,4.17
1796.70,4.94
1805.94,4.69
1815.19,3.85
1824.43,3.70
1833.67,3.99
1842.91,4.28
1852.15,4.39
1861.39,3.78
1870.63,3.58
1879.87,4.12
1889.11,4.53
1898.35,4.45
1907.59,4.14
1916.83,3.68
1926.07,3.23
1935.31,3.10
1944.56,3.28
1953.80,3.74
1963.04,4.66
1972.28,5.65
1981.52,6.06
1990.76,5.94
2000.00,5.44
2001.00,4.54
2018.22,3.43
2035.45,2.28
2052.67,1.33
2069.90,1.25
2087.12,2.29
2104.34,3.71
2121.57,4.17
2138.79,4.64
2156.02,4.54
2173.24,3.28
2190.47,1.54
2207.69,0.68
2224.91,1.12
2242.14,1.95
2259.36,2.44
2276.59,2.55
2293.81,2.51
2311.03,2.51
2328.26,2.50
2345.48,2.23
2362.71,2.02
2379.93,2.54
2397.16,3.71
2414.38,4.78
2431.60,5.17
2448.83,4.57
2466.05,3.12
2483.28,1.76
2500.50,1.23
2517.72,1.30
2534.95,1.52
2552.17,1.96
2569.40,2.30
2586.62,2.63
2603.84,3.18
2621.07,3.53
2638.29,3.94
2655.52,4.35
2672.74,4.34
2689.97,3.89
2707.19,3.65
2724.41,3.81
2741.64,3.71
2758.86,3.41
2776.09,3.81
2793.31,4.81
2810.53,5.31
2827.76,4.80
2844.98,4.04
2862.21,3.89
2879.43,4.03
2896.66,3.75
2913.88,3.41
2931.10,3.85
2948.33,4.71
2965.55,4.81
2982.78,4.08
3000.00,3.79
3001.00,4.28
3025.99,4.77
3050.98,6.53
3075.98,7.81
3100.97,7.69
3125.96,6.18
3150.95,4.35
3175.94,3.67
3200.93,4.67
3225.93,6.55
3250.92,7.96
3275.91,7.94
3300.90,6.70
3325.89,5.56
3350.88,5.41
3375.87,5.61
3400.87,5.41
3425.86,4.98
3450.85,4.73
3475.84,4.84
3500.83,5.35
3525.82,5.91
3550.82,5.98
3575.81,5.57
3600.80,5.26
3625.79,5.25
3650.78,5.34
3675.77,5.43
3700.77,5.66
3725.76,5.70
3750.75,5.59
3775.74,5.78
3800.73,6.08
3825.73,5.84
3850.72,5.03
3875.71,4.19
3900.70,3.81
3925.69,4.10
3950.68,4.65
3975.68,5.03
4000.67,5.25
4025.66,5.20
4050.65,4.75
4075.64,4.40
4100.63,4.51
4125.62,4.61
4150.62,4.34
4175.61,4.14
4200.60,4.38
4225.59,5.03
4250.58,5.79
4275.58,5.95
4300.57,5.02
4325.56,4.36
4350.55,3.71
4375.54,2.96
4400.53,2.72
4425.52,2.62
4450.52,3.07
4475.51,4.46
4500.50,6.07
4525.49,6.75
4550.48,6.56
4575.48,6.30
4600.47,6.04
4625.46,5.43
4650.45,4.54
4675.44,3.87
4700.43,3.80
4725.42,4.24
4750.42,4.88
4775.41,5.40
4800.40,5.66
4825.39,5.61
4850.38,5.27
4875.37,5.12
4900.37,5.46
4925.36,5.59
4950.35,5.31
4975.34,5.52
5000.33,5.72
5025.33,7.05
5050.32,8.07
5075.31,8.01
5100.30,7.31
5125.29,6.55
5150.28,6.10
5175.27,6.53
5200.27,7.92
5225.26,9.49
5250.25,10.68
5275.24,11.68
5300.23,12.46
5325.23,12.75
5350.22,13.06
5375.21,14.38
5400.20,16.58
5425.19,18.76
5450.18,20.68
5475.17,22.72
5500.17,24.52
5525.16,25.12
5550.15,24.51
5575.14,24.28
5600.13,25.84
5625.12,27.63
5650.12,29.42
5675.11,36.29
5700.10,51.51
5725.09,84.50
5750.08,148.05
