Size (bp),Intensity
0.58,1881.40
1.00,1642.57
2.00,1135.09
2.42,631.87
2.84,298.82
3.26,138.32
3.68,79.80
4.10,63.94
4.52,61.30
4.94,61.06
5.36,60.72
5.79,60.44
6.21,60.17
6.63,58.53
7.05,54.28
7.47,47.46
7.89,39.96
8.31,33.52
8.73,28.41
9.15,23.66
9.57,18.60
9.99,13.97
10.41,10.88
10.83,9.42
11.25,9.42
11.67,10.70
12.09,11.79
12.52,10.75
12.94,7.76
13.36,4.77
13.78,3.05
14.20,2.76
14.62,3.51
15.04,4.02
15.46,4.54
15.88,5.11
16.30,5.00
16.72,4.50
17.14,4.08
17.56,3.98
17.98,4.40
18.40,5.28
18.82,5.78
19.24,5.35
19.67,4.91
20.09,5.33
20.51,5.83
20.93,5.55
21.35,5.24
21.77,5.85
22.19,7.06
22.61,7.87
23.03,7.58
23.45,6.53
23.87,5.62
24.29,5.16
24.71,4.70
25.13,3.12
25.55,1.48
25.97,0.82
26.39,1.21
26.82,2.05
27.24,2.64
27.66,2.47
28.08,1.95
28.50,2.27
28.92,3.80
29.34,5.73
29.76,7.12
30.18,7.71
30.60,8.15
31.02,9.12
31.44,10.32
31.86,11.07
32.28,11.36
32.70,11.57
33.12,11.64
33.55,11.46
33.97,11.28
34.39,10.30
34.81,8.81
35.23,7.29
35.65,6.36
36.07,6.46
36.49,7.42
36.91,8.02
37.33,7.54
37.75,6.80
38.17,6.74
38.59,7.21
39.01,7.60
39.43,7.28
39.85,6.27
40.27,5.31
40.70,4.83
41.12,4.56
41.54,4.34
41.96,4.06
42.38,3.59
42.80,3.52
43.22,3.44
43.64,4.05
44.06,4.47
44.48,4.13
44.90,4.17
45.32,5.06
45.74,5.56
46.16,5.26
46.58,5.15
47.00,5.73
47.42,6.78
47.85,8.07
48.27,9.04
48.69,8.85
49.11,7.76
49.53,7.32
49.95,8.22
50.37,9.00
50.79,8.49
51.21,7.56
51.63,7.08
52.05,6.83
52.47,6.58
52.89,5.84
53.31,5.43
53.73,5.48
54.15,5.20
54.58,4.30
55.00,3.88
55.42,4.65
55.84,5.60
56.26,5.44
56.68,4.31
57.10,3.25
57.52,2.66
57.94,2.34
58.36,2.29
58.78,2.54
59.20,2.96
59.62,3.24
60.04,2.77
60.46,1.38
60.88,-0.07
61.30,-0.41
61.73,-0.75
62.15,-0.59
62.57,0.05
62.99,0.42
63.41,-0.28
63.83,-1.94
64.25,-3.71
64.67,-4.57
65.09,-3.65
65.51,-1.40
65.93,0.46
66.35,0.96
66.77,0.58
67.19,0.19
67.61,0.19
68.03,0.60
68.45,1.55
68.88,3.12
69.30,4.47
69.72,4.18
70.14,3.26
70.56,2.34
70.98,0.98
71.40,1.42
71.82,2.26
72.24,1.55
72.66,-0.62
73.08,-2.42
73.50,-2.17
73.92,-0.17
74.34,1.56
74.76,1.59
75.18,0.40
75.61,-0.30
76.03,0.76
76.45,2.84
76.87,3.76
77.29,2.80
77.71,1.52
78.13,1.21
78.55,1.55
78.97,2.17
79.39,2.64
79.81,3.10
80.23,3.70
80.65,3.97
81.07,5.25
81.49,7.76
81.91,9.68
82.33,9.90
82.76,9.40
83.18,9.35
83.60,9.69
84.02,10.15
84.44,10.91
84.86,11.75
85.28,12.05
85.70,11.84
86.12,11.41
86.54,10.89
86.96,11.04
87.38,12.07
87.80,12.85
88.22,12.71
88.64,12.41
89.06,12.10
89.48,11.73
89.91,11.96
90.33,12.50
90.75,12.99
91.17,13.60
91.59,14.45
92.01,15.30
92.43,15.81
92.85,15.75
93.27,15.18
93.69,14.53
94.11,13.92
94.53,13.20
94.95,12.68
95.37,13.16
95.79,14.49
96.21,15.28
96.64,14.99
97.06,14.47
97.48,14.45
97.90,14.84
98.32,15.22
98.74,17.26
99.16,20.32
99.58,22.98
100.00,24.54
101.00,25.48
101.52,25.85
102.04,25.41
102.56,24.46
103.08,23.43
103.61,22.71
104.13,22.91
104.65,24.12
105.17,25.08
105.69,24.28
106.21,22.07
106.73,20.25
107.25,19.84
107.77,20.45
108.29,21.43
108.82,22.82
109.34,23.75
109.86,24.68
110.38,26.43
110.90,27.02
111.42,25.61
111.94,22.52
112.46,18.86
112.98,15.37
113.51,12.53
114.03,10.78
114.55,9.99
115.07,9.60
115.59,9.18
116.11,8.49
116.63,7.55
117.15,6.96
117.67,7.36
118.19,8.42
118.72,9.11
119.24,9.19
119.76,9.15
120.28,8.90
120.80,8.45
121.32,8.00
121.84,6.71
122.36,5.68
122.88,5.15
123.41,5.08
123.93,5.57
124.45,6.79
124.97,8.35
125.49,9.02
126.01,7.95
126.53,5.97
127.05,4.95
127.57,5.57
128.09,6.09
128.62,5.06
129.14,3.90
129.66,4.10
130.18,4.66
130.70,4.52
131.22,3.85
131.74,2.64
132.26,1.92
132.78,1.20
133.31,0.55
133.83,0.92
134.35,1.58
134.87,1.97
135.39,2.15
135.91,2.21
136.43,2.10
136.95,2.21
137.47,2.98
137.99,4.01
138.52,4.43
139.04,3.88
139.56,3.00
140.08,2.69
140.60,3.08
141.12,3.90
141.64,4.79
142.16,5.03
142.68,4.28
143.21,3.18
143.73,2.92
144.25,2.66
144.77,3.12
145.29,4.46
145.81,6.43
146.33,7.88
146.85,7.30
147.37,5.30
147.89,4.16
148.42,4.56
148.94,5.58
149.46,6.81
149.98,8.09
150.50,8.54
151.02,7.84
151.54,7.02
152.06,7.07
152.58,7.61
153.11,7.91
153.63,7.89
154.15,7.69
154.67,7.33
155.19,7.17
155.71,7.01
156.23,6.78
156.75,6.56
157.27,6.71
157.79,7.63
158.32,9.05
158.84,10.16
159.36,10.68
159.88,11.49
160.40,13.16
160.92,14.96
161.44,16.39
161.96,17.53
162.48,17.73
163.01,16.50
163.53,14.71
164.05,13.32
164.57,11.96
165.09,10.27
165.61,9.04
166.13,9.07
166.65,9.70
167.17,10.33
167.69,12.28
168.22,14.21
168.74,15.72
169.26,16.95
169.78,17.98
170.30,18.87
170.82,19.86
171.34,20.76
171.86,20.63
172.38,18.73
172.91,16.09
173.43,14.69
173.95,14.71
174.47,14.82
174.99,14.69
175.51,14.72
176.03,14.86
176.55,15.00
177.07,15.11
177.59,15.28
178.12,15.57
178.64,15.87
179.16,16.65
179.68,16.87
180.20,16.63
180.72,16.68
181.24,17.36
181.76,18.94
182.28,21.41
182.81,23.67
183.33,24.34
183.85,23.47
184.37,22.40
184.89,22.42
185.41,23.96
185.93,26.35
186.45,28.12
186.97,28.51
187.49,28.19
188.02,28.49
188.54,30.14
189.06,32.49
189.58,33.19
190.10,33.89
190.62,33.22
191.14,31.06
191.66,29.47
192.18,29.37
192.71,29.51
193.23,28.92
193.75,28.27
194.27,28.18
194.79,28.16
195.31,27.76
195.83,26.88
196.35,25.47
196.87,23.86
197.39,22.77
197.92,22.87
198.44,24.86
198.96,28.76
199.48,33.26
200.00,36.32
201.00,36.43
201.59,34.74
202.17,33.05
202.76,26.88
203.34,19.72
203.93,13.50
204.51,9.52
205.10,8.14
205.69,8.36
206.27,8.70
206.86,9.01
207.44,9.95
208.03,11.09
208.62,11.23
209.20,10.49
209.79,10.12
210.37,10.15
210.96,9.74
211.54,9.02
212.13,8.88
212.72,9.89
213.30,11.72
213.89,12.53
214.47,13.34
215.06,14.28
215.64,14.90
216.23,15.86
216.82,17.45
217.40,18.82
217.99,18.84
218.57,18.37
219.16,19.07
219.75,20.46
220.33,21.44
220.92,22.69
221.50,24.84
222.09,27.11
222.67,29.00
223.26,31.08
223.85,33.57
224.43,36.09
225.02,38.57
225.60,41.51
226.19,45.30
226.78,47.42
227.36,49.54
227.95,52.80
228.53,54.18
229.12,54.35
229.70,54.74
230.29,56.50
230.88,60.39
231.46,66.28
232.05,72.40
232.63,76.26
233.22,76.84
233.80,75.12
234.39,72.98
234.98,72.29
235.56,73.88
236.15,76.97
236.73,80.39
237.32,83.94
237.91,88.27
238.49,94.01
239.08,101.47
239.66,106.14
240.25,110.81
240.83,122.14
241.42,135.12
242.01,148.29
242.59,159.24
243.18,166.97
243.76,172.66
244.35,177.93
244.93,184.88
245.52,196.44
246.11,214.69
246.69,240.69
247.28,275.17
247.86,316.62
248.45,360.17
249.04,400.38
249.62,433.82
250.21,458.93
250.79,477.05
251.38,493.97
251.96,517.32
252.55,535.05
253.14,552.78
253.72,604.55
254.31,675.70
254.89,765.94
255.48,871.47
256.07,987.09
256.65,1105.20
257.24,1214.73
257.82,1307.13
258.41,1385.34
258.99,1463.10
259.58,1553.63
260.17,1660.14
260.75,1776.83
261.34,1897.14
261.92,2018.59
262.51,2137.12
263.09,2248.98
263.68,2383.75
264.27,2639.00
264.85,3137.18
265.44,3512.57
266.02,3887.96
266.61,4684.12
267.20,5180.88
267.78,5133.88
268.37,4595.19
268.95,3876.61
269.54,3302.31
270.12,2998.16
270.71,2904.98
271.30,2922.94
271.88,2995.36
272.47,3096.75
273.05,3206.87
273.64,3316.24
274.22,3436.45
274.81,3582.62
275.40,3756.40
275.98,3993.07
276.57,4454.77
277.15,5408.91
277.74,6963.22
278.33,7856.73
278.91,8750.25
279.50,9965.79
280.08,9865.14
280.67,8329.53
281.25,5983.35
281.84,3724.95
282.43,2122.01
283.01,1224.13
283.60,801.82
284.18,623.60
284.77,553.97
285.36,532.35
285.94,533.98
286.53,546.28
287.11,559.95
287.70,569.83
288.28,576.31
288.87,583.21
289.46,594.92
290.04,612.38
290.63,629.30
291.21,632.34
291.80,635.38
292.38,625.24
292.97,603.42
293.56,581.52
294.14,570.09
294.73,571.77
295.31,580.83
295.90,589.00
296.49,591.73
297.07,589.34
297.66,582.10
298.24,567.16
298.83,543.93
299.41,520.32
300.00,508.88
301.00,518.02
301.70,549.38
302.39,599.83
303.09,663.20
303.79,731.92
304.49,797.59
305.18,825.08
305.88,852.57
306.58,896.32
307.27,939.10
307.97,994.85
308.67,1069.44
309.37,1155.07
310.06,1236.18
310.76,1304.35
311.46,1368.47
312.15,1450.69
312.85,1578.52
313.55,1786.09
314.25,2108.92
314.94,2545.07
315.64,3004.01
316.34,3310.73
317.04,3297.71
317.73,2928.44
318.43,2343.55
319.13,1770.88
319.82,1375.08
320.52,1280.78
321.22,1186.47
321.92,1147.70
322.61,1197.97
323.31,1321.40
324.01,1543.62
324.70,1881.59
325.40,2277.00
326.10,2578.60
326.80,2615.60
327.49,2316.90
328.19,1773.65
328.89,1182.00
329.58,712.10
330.28,421.14
330.98,272.02
331.68,202.84
332.37,170.61
333.07,154.97
333.77,147.01
334.46,141.56
335.16,135.88
335.86,132.84
336.56,129.81
337.25,124.21
337.95,119.08
338.65,113.15
339.35,105.96
340.04,98.80
340.74,92.56
341.44,86.98
342.13,82.08
342.83,78.23
343.53,75.29
344.23,72.70
344.92,70.01
345.62,67.12
346.32,64.38
347.01,62.29
347.71,61.05
348.41,61.02
349.11,62.38
349.80,64.33
350.50,66.33
351.20,67.82
351.89,69.31
352.59,73.45
353.29,76.25
353.99,74.92
354.68,69.38
355.38,61.91
356.08,54.49
356.77,47.73
357.47,42.41
358.17,39.46
358.87,38.30
359.56,38.20
360.26,39.20
360.96,40.47
361.65,40.58
362.35,39.07
363.05,36.59
363.75,34.24
364.44,32.54
365.14,31.02
365.84,29.57
366.54,29.04
367.23,28.51
367.93,27.63
368.63,26.49
369.32,25.05
370.02,23.50
370.72,22.09
371.42,21.11
372.11,20.37
372.81,19.51
373.51,18.81
374.20,18.84
374.90,19.55
375.60,20.29
376.30,20.63
376.99,21.02
377.69,21.72
378.39,22.11
379.08,21.95
379.78,21.67
380.48,21.12
381.18,20.26
381.87,20.04
382.57,19.82
383.27,19.95
383.96,20.15
384.66,20.45
385.36,21.08
386.06,22.10
386.75,23.14
387.45,23.75
388.15,24.13
388.85,24.80
389.54,25.61
390.24,25.98
390.94,26.08
391.63,26.67
392.33,27.60
393.03,28.01
393.73,28.23
394.42,29.44
395.12,31.80
395.82,34.63
396.51,37.77
397.21,39.44
397.91,41.11
398.61,43.47
399.30,43.83
400.00,43.19
401.00,43.17
401.72,43.95
402.45,44.92
403.17,45.57
403.89,45.55
404.61,45.26
405.34,45.66
406.06,46.90
406.78,47.63
407.50,46.86
408.23,45.81
408.95,46.12
409.67,47.31
410.39,48.28
411.12,49.11
411.84,49.84
412.56,49.92
413.28,49.99
414.01,49.45
414.73,48.60
415.45,48.12
416.18,48.40
416.90,49.38
417.62,50.71
418.34,51.59
419.07,51.37
419.79,50.44
420.51,49.76
421.23,49.53
421.96,49.01
422.68,48.21
423.40,48.04
424.12,48.13
424.85,46.79
425.57,43.69
426.29,40.41
427.01,38.22
427.74,37.16
428.46,36.89
429.18,36.62
429.91,36.08
430.63,35.17
431.35,33.76
432.07,32.35
432.80,31.98
433.52,32.84
434.24,33.77
434.96,33.85
435.69,33.65
436.41,34.21
437.13,35.44
437.85,36.31
438.58,36.06
439.30,34.61
440.02,32.76
440.74,32.18
441.47,33.59
442.19,35.82
442.91,37.85
443.64,39.54
444.36,39.98
445.08,40.41
445.80,40.26
446.53,39.99
447.25,40.50
447.97,41.60
448.69,42.53
449.42,43.12
450.14,43.72
450.86,44.28
451.58,44.56
452.31,44.92
453.03,45.96
453.75,47.74
454.47,49.66
455.20,50.79
455.92,50.54
456.64,49.67
457.36,49.78
458.09,51.02
458.81,51.81
459.53,51.26
460.26,50.59
460.98,49.92
461.70,48.53
462.42,47.48
463.15,46.81
463.87,46.40
464.59,46.30
465.31,46.47
466.04,46.71
466.76,46.52
467.48,45.30
468.20,43.78
468.93,43.66
469.65,44.84
470.37,45.34
471.09,43.71
471.82,40.62
472.54,37.98
473.26,36.60
473.99,35.57
474.71,34.29
475.43,33.13
476.15,32.47
476.88,31.82
477.60,29.77
478.32,27.91
479.04,27.27
479.77,27.09
480.49,26.92
481.21,27.50
481.93,28.24
482.66,27.88
483.38,27.07
484.10,26.91
484.82,27.07
485.55,26.83
486.27,25.94
486.99,24.75
487.72,24.13
488.44,24.00
489.16,23.50
489.88,22.73
490.61,22.40
491.33,22.40
492.05,22.37
492.77,22.34
493.50,22.29
494.22,22.18
494.94,21.58
495.66,20.57
496.39,19.64
497.11,19.03
497.83,18.81
498.55,19.39
499.28,20.78
500.00,21.72
501.00,20.89
502.01,18.79
503.02,16.99
504.03,16.10
505.04,15.60
506.05,15.16
507.06,15.02
508.07,15.21
509.08,15.53
510.09,15.88
511.10,15.82
512.11,15.77
513.12,15.01
514.13,14.90
515.14,16.70
516.15,19.04
517.16,19.38
518.17,17.87
519.18,16.77
520.19,16.60
521.20,16.18
522.21,15.85
523.22,16.71
524.23,17.89
525.24,17.98
526.26,17.33
527.27,17.09
528.28,17.62
529.29,18.40
530.30,18.99
531.31,19.37
532.32,19.59
533.33,19.73
534.34,19.88
535.35,20.32
536.36,20.55
537.37,20.61
538.38,20.94
539.39,21.78
540.40,22.91
541.41,23.47
542.42,23.14
543.43,23.09
544.44,24.34
545.45,26.01
546.46,26.76
547.47,26.90
548.48,27.54
549.49,28.72
550.50,29.97
551.51,31.22
552.52,32.30
553.53,33.01
554.54,33.72
555.55,34.01
556.56,34.31
557.57,33.71
558.58,31.60
559.59,29.46
560.60,28.46
561.61,27.51
562.62,25.36
563.63,23.14
564.64,22.42
565.65,22.92
566.66,23.56
567.67,23.86
568.68,23.73
569.69,23.11
570.70,21.87
571.71,20.28
572.72,19.07
573.73,18.84
574.74,19.51
575.76,20.46
576.77,20.85
577.78,20.68
578.79,20.52
579.80,20.31
580.81,20.78
581.82,21.42
582.83,21.61
583.84,21.03
584.85,19.59
585.86,17.99
586.87,17.51
587.88,18.49
588.89,19.83
589.90,20.27
590.91,19.74
591.92,18.91
592.93,18.20
593.94,17.95
594.95,18.58
595.96,20.01
596.97,21.67
597.98,23.06
598.99,23.68
600.00,23.26
601.00,22.84
602.18,20.79
603.36,19.15
604.54,18.68
605.71,18.25
606.89,17.33
608.07,17.02
609.25,17.73
610.43,18.62
611.61,19.22
612.79,19.78
613.96,20.62
615.14,21.45
616.32,21.62
617.50,21.45
618.68,21.96
619.86,23.33
621.04,24.66
622.21,25.03
623.39,24.44
624.57,23.63
625.75,23.45
626.93,23.27
628.11,23.48
629.29,24.15
630.46,25.29
631.64,26.65
632.82,27.70
634.00,28.66
635.18,30.01
636.36,31.10
637.54,31.44
638.71,32.05
639.89,34.03
641.07,36.49
642.25,37.19
643.43,35.15
644.61,31.25
645.79,27.26
646.96,24.96
648.14,24.56
649.32,24.70
650.50,24.52
651.68,24.44
652.86,24.35
654.04,24.38
655.21,24.07
656.39,23.38
657.57,23.22
658.75,23.73
659.93,24.25
661.11,24.70
662.29,25.23
663.46,25.73
664.64,26.20
665.82,26.49
667.00,26.51
668.18,26.22
669.36,25.32
670.54,23.94
671.71,23.17
672.89,23.77
674.07,25.20
675.25,26.23
676.43,26.33
677.61,26.22
678.79,26.11
679.96,25.98
681.14,25.65
682.32,25.01
683.50,24.21
684.68,23.87
685.86,25.02
687.04,27.13
688.21,27.78
689.39,26.19
690.57,24.44
691.75,24.19
692.93,24.59
694.11,24.43
695.29,23.93
696.46,23.82
697.64,24.40
698.82,25.69
700.00,27.47
701.00,29.08
702.98,29.55
704.96,30.02
706.94,30.44
708.92,30.63
710.90,30.58
712.88,30.11
714.86,28.98
716.84,27.82
718.82,28.10
720.80,29.79
722.78,30.79
724.76,30.04
726.74,28.99
728.72,29.02
730.70,29.68
732.68,30.08
734.66,30.16
736.64,30.55
738.62,32.14
740.60,34.89
742.58,37.18
744.56,37.57
746.54,37.10
748.52,36.62
750.50,35.99
752.48,36.45
754.46,37.30
756.44,37.60
758.42,37.36
760.40,37.13
762.38,36.72
764.36,36.19
766.34,36.78
768.32,39.01
770.30,41.22
772.28,41.96
774.26,41.87
776.24,41.56
778.22,41.01
780.20,40.98
782.18,41.97
784.16,43.10
786.14,43.36
788.12,42.89
790.10,42.66
792.08,42.42
794.06,42.25
796.04,42.11
798.02,41.86
800.00,41.51
801.00,40.85
803.36,39.65
805.71,38.13
808.07,36.98
810.43,36.55
812.79,36.60
815.14,36.88
817.50,37.44
819.86,38.08
822.21,38.11
824.57,36.92
826.93,35.26
829.29,35.04
831.64,36.84
834.00,39.20
836.36,40.77
838.71,41.09
841.07,41.41
843.43,41.35
845.79,40.82
848.14,40.47
850.50,41.25
852.86,43.27
855.21,45.36
857.57,46.59
859.93,47.56
862.29,48.93
864.64,49.79
867.00,49.24
869.36,48.26
871.71,48.09
874.07,48.35
876.43,48.05
878.79,47.03
881.14,45.41
883.50,42.99
885.86,40.03
888.21,37.28
890.57,36.20
892.93,35.12
895.29,33.65
897.64,32.96
900.00,32.78
901.00,32.60
904.67,32.51
908.33,32.62
912.00,32.41
915.67,31.61
919.33,30.63
923.00,29.56
926.67,28.30
930.33,27.44
934.00,27.64
937.67,28.23
941.33,27.96
945.00,26.90
948.67,26.10
952.33,25.91
956.00,25.88
959.67,25.24
963.33,24.25
967.00,23.25
970.67,20.60
974.33,18.99
978.00,18.75
981.67,18.83
985.33,18.44
989.00,17.34
992.67,16.00
996.33,15.65
1000.00,16.76
1001.00,17.91
1006.10,17.96
1011.21,17.57
1016.31,17.05
1021.41,15.46
1026.51,13.22
1031.62,12.23
1036.72,12.92
1041.82,14.29
1046.92,15.68
1052.03,16.60
1057.13,16.79
1062.23,16.98
1067.33,17.52
1072.44,18.73
1077.54,20.33
1082.64,21.68
1087.74,22.13
1092.85,21.82
1097.95,21.22
1103.05,20.36
1108.15,19.45
1113.26,19.47
1118.36,20.82
1123.46,22.65
1128.56,23.92
1133.67,24.31
1138.77,24.21
1143.87,24.26
1148.97,24.38
1154.08,24.00
1159.18,23.22
1164.28,22.63
1169.38,22.39
1174.49,22.16
1179.59,21.28
1184.69,20.22
1189.79,19.75
1194.90,20.06
1200.00,20.96
1201.00,22.35
1210.06,23.68
1219.12,24.26
1228.18,24.27
1237.24,24.43
1246.30,24.78
1255.36,25.02
1264.42,25.05
1273.48,24.66
1282.55,23.89
1291.61,23.62
1300.67,24.20
1309.73,24.82
1318.79,25.06
1327.85,25.30
1336.91,25.60
1345.97,25.90
1355.03,26.85
1364.09,28.07
1373.15,29.24
1382.21,30.00
1391.27,30.34
1400.33,30.48
1409.39,30.69
1418.45,31.29
1427.52,32.17
1436.58,32.59
1445.64,32.51
1454.70,32.63
1463.76,33.41
1472.82,35.10
1481.88,37.41
1490.94,39.14
1500.00,39.46
1501.00,38.72
1510.24,38.11
1519.48,38.80
1528.72,39.65
1537.96,40.51
1547.20,41.39
1556.44,40.28
1565.69,38.38
1574.93,37.60
1584.17,38.13
1593.41,38.91
1602.65,39.29
1611.89,39.28
1621.13,39.39
1630.37,39.88
1639.61,40.08
1648.85,39.64
1658.09,39.28
1667.33,39.28
1676.57,39.03
1685.81,38.15
1695.06,36.93
1704.30,36.04
1713.54,35.93
1722.78,36.54
1732.02,37.07
1741.26,37.61
1750.50,38.56
1759.74,38.61
1768.98,37.81
1778.22,36.78
1787.46,35.48
1796.70,33.95
1805.94,33.31
1815.19,34.28
1824.43,35.90
1833.67,36.88
1842.91,36.63
1852.15,35.33
1861.39,33.89
1870.63,32.69
1879.87,31.33
1889.11,30.22
1898.35,29.83
1907.59,29.20
1916.83,27.64
1926.07,25.90
1935.31,25.39
1944.56,24.87
1953.80,24.82
1963.04,25.44
1972.28,25.80
1981.52,25.43
1990.76,24.82
2000.00,24.31
2001.00,23.95
2018.22,24.03
2035.45,24.34
2052.67,23.87
2069.90,22.39
2087.12,21.04
2104.34,20.40
2121.57,19.66
2138.79,18.85
2156.02,18.99
2173.24,19.66
2190.47,19.50
2207.69,18.83
2224.91,18.63
2242.14,18.49
2259.36,18.34
2276.59,17.58
2293.81,17.64
2311.03,19.04
2328.26,20.12
2345.48,19.87
2362.71,19.34
2379.93,19.18
2397.16,18.83
2414.38,18.01
2431.60,16.71
2448.83,15.17
2466.05,14.25
2483.28,14.05
2500.50,13.53
2517.72,12.56
2534.95,12.04
2552.17,12.26
2569.40,12.78
2586.62,13.01
2603.84,12.84
2621.07,12.68
2638.29,12.48
2655.52,13.15
2672.74,13.99
2689.97,14.00
2707.19,13.52
2724.41,13.05
2741.64,12.19
2758.86,10.78
2776.09,9.48
2793.31,8.62
2810.53,8.14
2827.76,8.38
2844.98,9.38
2862.21,10.07
2879.43,9.69
2896.66,8.94
2913.88,8.83
2931.10,9.33
2948.33,9.48
2965.55,8.70
2982.78,8.28
3000.00,7.86
3001.00,8.22
3025.99,9.21
3050.98,9.04
3075.98,7.27
3100.97,5.29
3125.96,4.49
3150.95,5.22
3175.94,6.68
3200.93,7.57
3225.93,7.50
3250.92,7.30
3275.91,7.86
3300.90,8.98
3325.89,9.64
3350.88,9.71
3375.87,9.71
3400.87,9.01
3425.86,7.23
3450.85,5.76
3475.84,5.74
3500.83,6.25
3525.82,6.75
3550.82,8.21
3575.81,9.71
3600.80,10.38
3625.79,10.00
3650.78,9.50
3675.77,8.93
3700.77,7.68
3725.76,6.49
3750.75,6.56
3775.74,7.62
3800.73,8.41
3825.73,8.08
3850.72,7.16
3875.71,6.83
3900.70,7.41
3925.69,8.39
3950.68,9.08
3975.68,9.01
4000.67,8.42
4025.66,7.42
4050.65,6.70
4075.64,5.98
4100.63,5.13
4125.62,5.90
4150.62,7.46
4175.61,8.72
4200.60,9.86
4225.59,10.64
4250.58,9.89
4275.58,7.67
4300.57,5.80
4325.56,5.76
4350.55,7.25
4375.54,9.00
4400.53,10.57
4425.52,12.12
4450.52,13.13
4475.51,12.90
