Size (bp),Intensity
0.58,1908.60
1.00,1509.68
2.00,954.27
2.42,501.32
2.84,243.49
3.26,132.84
3.68,93.42
4.10,80.75
4.52,79.33
4.94,77.90
5.36,78.01
5.79,77.12
6.21,73.70
6.63,68.16
7.05,61.27
7.47,53.05
7.89,43.71
8.31,34.91
8.73,28.34
9.15,23.93
9.57,21.10
9.99,19.82
10.41,19.75
10.83,19.86
11.25,19.97
11.67,19.65
12.09,18.30
12.52,15.92
12.94,13.13
13.36,10.83
13.78,9.77
14.20,9.66
14.62,9.79
15.04,10.07
15.46,10.48
15.88,10.59
16.30,10.20
16.72,9.37
17.14,8.76
17.56,8.15
17.98,6.89
18.40,6.33
18.82,6.62
19.24,6.99
19.67,6.89
20.09,6.46
20.51,5.77
20.93,5.07
21.35,4.58
21.77,4.05
22.19,3.27
22.61,2.45
23.03,1.67
23.45,1.27
23.87,0.87
24.29,0.04
24.71,-0.70
25.13,-1.11
25.55,-1.12
25.97,-1.09
26.39,-1.36
26.82,-1.81
27.24,-1.81
27.66,-1.04
28.08,-0.10
28.50,0.54
28.92,1.07
29.34,1.51
29.76,1.63
30.18,1.75
30.60,2.12
31.02,2.97
31.44,3.97
31.86,4.41
32.28,4.05
32.70,3.44
33.12,2.88
33.55,2.10
33.97,1.44
34.39,1.41
34.81,0.98
35.23,-0.98
35.65,-3.18
36.07,-3.60
36.49,-2.82
36.91,-2.05
37.33,0.51
37.75,3.51
38.17,6.55
38.59,9.03
39.01,10.44
39.43,10.24
39.85,8.52
40.27,6.65
40.70,5.76
41.12,5.65
41.54,5.77
41.96,5.65
42.38,4.93
42.80,4.59
43.22,4.25
43.64,4.59
44.06,5.76
44.48,6.76
44.90,7.47
45.32,8.38
45.74,9.16
46.16,9.10
46.58,8.32
47.00,7.35
47.42,6.40
47.85,5.55
48.27,4.91
48.69,4.54
49.11,4.48
49.53,4.42
49.95,4.42
50.37,4.73
50.79,5.36
51.21,5.41
51.63,4.78
52.05,4.86
52.47,5.66
52.89,5.58
53.31,4.74
53.73,4.79
54.15,6.07
54.58,7.51
55.00,8.13
55.42,7.92
55.84,7.70
56.26,6.64
56.68,5.78
57.10,5.65
57.52,6.08
57.94,6.72
58.36,7.39
58.78,7.63
59.20,7.36
59.62,7.35
60.04,7.51
60.46,6.63
60.88,4.68
61.30,3.31
61.73,3.59
62.15,4.17
62.57,4.74
62.99,5.45
63.41,5.45
63.83,5.45
64.25,5.78
64.67,6.03
65.09,5.94
65.51,5.71
65.93,5.75
66.35,6.25
66.77,6.49
67.19,5.83
67.61,5.15
68.03,5.35
68.45,5.56
68.88,5.78
69.30,5.39
69.72,4.22
70.14,2.76
70.56,1.36
70.98,0.67
71.40,1.44
71.82,3.13
72.24,4.36
72.66,4.69
73.08,4.65
73.50,4.71
73.92,5.05
74.34,5.48
74.76,5.56
75.18,5.65
75.61,5.57
76.03,5.15
76.45,4.29
76.87,3.36
77.29,2.36
77.71,1.02
78.13,-0.12
78.55,-0.15
78.97,0.71
79.39,1.22
79.81,1.04
80.23,1.02
80.65,1.45
81.07,1.67
81.49,1.90
81.91,2.51
82.33,3.18
82.76,3.34
83.18,3.20
83.60,3.26
84.02,3.34
84.44,3.52
84.86,4.19
85.28,5.03
85.70,5.55
86.12,5.68
86.54,5.16
86.96,4.04
87.38,3.61
87.80,3.18
88.22,2.87
88.64,2.48
89.06,2.15
89.48,2.64
89.91,3.90
90.33,5.03
90.75,5.02
91.17,3.94
91.59,2.91
92.01,2.63
92.43,2.99
92.85,3.51
93.27,3.65
93.69,3.57
94.11,3.71
94.53,3.85
94.95,3.98
95.37,2.95
95.79,1.48
96.21,1.14
96.64,1.97
97.06,3.19
97.48,4.42
97.90,5.24
98.32,5.60
98.74,6.30
99.16,7.74
99.58,9.79
100.00,12.57
101.00,14.09
101.52,15.62
102.04,17.32
102.56,16.62
103.08,14.37
103.61,11.98
104.13,9.73
104.65,7.55
105.17,5.95
105.69,5.45
106.21,5.74
106.73,5.96
107.25,5.99
107.77,6.58
108.29,7.85
108.82,8.46
109.34,9.07
109.86,9.90
110.38,10.24
110.90,9.82
111.42,8.90
111.94,8.15
112.46,7.70
112.98,7.31
113.51,6.83
114.03,6.33
114.55,6.30
115.07,7.07
115.59,8.05
116.11,8.32
116.63,8.12
117.15,7.91
117.67,7.57
118.19,7.21
118.72,6.26
119.24,4.92
119.76,4.03
120.28,3.98
120.80,4.09
121.32,3.45
121.84,2.31
122.36,1.69
122.88,1.83
123.41,2.11
123.93,2.16
124.45,2.12
124.97,2.08
125.49,2.07
126.01,2.45
126.53,3.31
127.05,4.01
127.57,3.96
128.09,3.45
128.62,3.14
129.14,3.27
129.66,3.59
130.18,4.06
130.70,4.92
131.22,5.97
131.74,6.44
132.26,6.12
132.78,5.88
133.31,5.65
133.83,5.46
134.35,5.27
134.87,5.04
135.39,5.20
135.91,5.72
136.43,6.15
136.95,6.41
137.47,6.52
137.99,6.52
138.52,6.44
139.04,6.32
139.56,6.38
140.08,6.49
140.60,6.16
141.12,5.83
141.64,4.37
142.16,3.41
142.68,3.79
143.21,4.59
143.73,5.06
144.25,6.03
144.77,8.00
145.29,9.75
145.81,10.11
146.33,9.58
146.85,9.33
147.37,9.47
147.89,9.27
148.42,8.88
148.94,8.49
149.46,7.38
149.98,6.30
150.50,6.09
151.02,7.03
151.54,7.87
152.06,7.67
152.58,7.17
153.11,7.30
153.63,7.86
154.15,8.06
154.67,7.46
155.19,6.38
155.71,5.54
156.23,5.54
156.75,5.54
157.27,6.73
157.79,8.37
158.32,8.77
158.84,7.26
159.36,4.89
159.88,3.17
160.40,2.83
160.92,3.51
161.44,4.50
161.96,5.44
162.48,6.60
163.01,8.50
163.53,11.07
164.05,13.19
164.57,13.51
165.09,13.82
165.61,13.07
166.13,12.05
166.65,11.85
167.17,12.74
167.69,13.93
168.22,14.18
168.74,12.97
169.26,10.92
169.78,9.69
170.30,10.58
170.82,12.61
171.34,13.41
171.86,12.46
172.38,11.91
172.91,11.36
173.43,10.96
173.95,10.55
174.47,10.24
174.99,11.15
175.51,13.15
176.03,15.23
176.55,17.58
177.07,20.87
177.59,24.80
178.12,28.36
178.64,30.41
179.16,30.02
179.68,27.53
180.20,25.91
180.72,24.29
181.24,21.49
181.76,20.35
182.28,21.55
182.81,24.56
183.33,28.95
183.85,34.65
184.37,39.90
184.89,42.25
185.41,41.50
185.93,39.39
186.45,37.64
186.97,37.16
187.49,37.39
188.02,36.94
188.54,36.49
189.06,33.30
189.58,29.07
190.10,25.77
190.62,23.51
191.14,21.38
191.66,19.64
192.18,18.67
192.71,17.89
193.23,16.80
193.75,15.50
194.27,14.05
194.79,12.52
195.31,11.05
195.83,10.18
196.35,9.32
196.87,7.11
197.39,5.22
197.92,4.76
198.44,5.85
198.96,7.20
199.48,7.29
200.00,6.12
201.00,4.70
201.59,3.86
202.17,4.01
202.76,4.95
203.34,5.81
203.93,6.05
204.51,6.14
205.10,6.49
205.69,6.83
206.27,7.82
206.86,8.33
207.44,8.59
208.03,9.16
208.62,9.90
209.20,10.53
209.79,11.29
210.37,12.50
210.96,14.62
211.54,18.30
212.13,23.20
212.72,27.80
213.30,30.05
213.89,29.26
214.47,28.47
215.06,23.54
215.64,17.94
216.23,14.55
216.82,14.21
217.40,15.63
217.99,16.82
218.57,16.93
219.16,17.07
219.75,19.31
220.33,25.42
220.92,35.47
221.50,46.19
222.09,52.31
222.67,51.59
223.26,50.86
223.85,43.49
224.43,34.60
225.02,27.79
225.60,23.80
226.19,21.45
226.78,19.74
227.36,18.45
227.95,17.54
228.53,17.51
229.12,18.95
229.70,21.37
230.29,23.28
230.88,23.80
231.46,23.69
232.05,23.58
232.63,23.46
233.22,23.21
233.80,22.35
234.39,21.21
234.98,20.71
235.56,20.93
236.15,20.96
236.73,20.98
237.32,22.15
237.91,24.29
238.49,26.15
239.08,27.37
239.66,28.30
240.25,28.62
240.83,28.94
241.42,29.58
242.01,31.38
242.59,34.94
243.18,39.19
243.76,42.40
244.35,43.24
244.93,41.13
245.52,36.49
246.11,30.70
246.69,25.59
247.28,22.42
247.86,20.94
248.45,20.13
249.04,19.19
249.62,18.46
250.21,17.74
250.79,16.38
251.38,16.58
251.96,18.71
252.55,20.98
253.14,21.54
253.72,20.95
254.31,21.13
254.89,22.93
255.48,25.81
256.07,28.67
256.65,30.45
257.24,30.81
257.82,30.02
258.41,29.38
258.99,28.75
259.58,28.13
260.17,28.63
260.75,29.82
261.34,31.65
261.92,34.44
262.51,37.49
263.09,39.31
263.68,39.67
264.27,40.17
264.85,42.17
265.44,45.23
266.02,48.19
266.61,50.59
267.20,51.66
267.78,52.72
268.37,55.08
268.95,58.02
269.54,61.15
270.12,63.65
270.71,65.35
271.30,66.99
271.88,69.23
272.47,71.81
273.05,74.10
273.64,76.00
274.22,78.15
274.81,81.69
275.40,86.98
275.98,90.32
276.57,93.66
277.15,102.25
277.74,114.55
278.33,131.63
278.91,152.16
279.50,172.35
280.08,188.12
280.67,198.04
281.25,203.70
281.84,207.43
282.43,210.46
283.01,212.53
283.60,212.56
284.18,210.45
284.77,209.02
285.36,211.66
285.94,214.30
286.53,233.78
287.11,273.08
287.70,333.18
288.28,410.96
288.87,501.99
289.46,601.73
290.04,702.98
290.63,792.12
291.21,850.82
291.80,865.76
292.38,838.48
292.97,785.31
293.56,727.36
294.14,703.66
294.73,679.97
295.31,647.63
295.90,625.77
296.49,609.02
297.07,598.15
297.66,599.41
298.24,621.40
298.83,673.85
299.41,764.62
300.00,892.10
301.00,1041.89
301.70,1198.57
302.39,1365.98
303.09,1575.09
303.79,1726.16
304.49,1877.23
305.18,2340.17
305.88,3043.28
306.58,4053.36
307.27,5460.18
307.97,7612.85
308.67,11345.13
309.37,17527.55
310.06,25827.24
310.76,33861.68
311.46,38093.20
312.15,36192.98
312.85,28877.06
313.55,19391.08
314.25,15253.24
314.94,11115.41
315.64,5637.47
316.34,2721.58
317.04,1408.19
317.73,877.91
318.43,671.57
319.13,586.51
319.82,546.87
320.52,527.60
321.22,520.43
321.92,521.31
322.61,525.79
323.31,527.06
324.01,517.06
324.70,503.72
325.40,490.37
326.10,446.77
326.80,390.94
327.49,331.46
328.19,277.91
328.89,236.04
329.58,205.96
330.28,184.77
330.98,169.09
331.68,156.56
332.37,146.17
333.07,136.96
333.77,128.03
334.46,118.98
335.16,109.08
335.86,103.36
336.56,97.64
337.25,85.34
337.95,73.25
338.65,62.08
339.35,52.75
340.04,46.08
340.74,42.04
341.44,39.55
342.13,37.37
342.83,35.09
343.53,32.70
344.23,29.76
344.92,26.15
345.62,22.98
346.32,22.27
347.01,21.56
347.71,21.36
348.41,20.45
349.11,18.06
349.80,15.49
350.50,14.71
351.20,16.22
351.89,18.66
352.59,20.79
353.29,22.23
353.99,22.28
354.68,20.42
355.38,17.64
356.08,15.15
356.77,13.97
357.47,12.78
358.17,10.17
358.87,8.08
359.56,7.17
360.26,7.47
360.96,9.11
361.65,11.83
362.35,14.16
363.05,14.65
363.75,13.04
364.44,9.90
365.14,6.32
365.84,3.78
366.54,2.97
367.23,3.06
367.93,3.15
368.63,3.37
369.32,3.47
370.02,3.33
370.72,2.67
371.42,2.02
372.11,1.93
372.81,1.86
373.51,1.46
374.20,1.13
374.90,0.79
375.60,0.17
376.30,0.09
376.99,1.26
377.69,2.05
378.39,2.84
379.08,3.69
379.78,3.81
380.48,3.84
381.18,3.97
381.87,3.92
382.57,3.63
383.27,3.46
383.96,3.57
384.66,3.24
385.36,1.91
386.06,0.59
386.75,0.76
387.45,2.39
388.15,4.23
388.85,4.89
389.54,5.54
390.24,6.33
390.94,6.95
391.63,8.02
392.33,9.39
393.03,9.96
393.73,9.22
394.42,7.99
395.12,6.93
395.82,5.99
396.51,5.31
397.21,5.34
397.91,6.03
398.61,6.93
399.30,7.49
400.00,8.04
401.00,9.40
401.72,10.75
402.45,11.77
403.17,12.13
403.89,11.71
404.61,10.94
405.34,10.50
406.06,10.85
406.78,12.82
407.50,17.95
408.23,26.62
408.95,36.92
409.67,46.12
410.39,48.95
411.12,51.78
411.84,51.34
412.56,43.56
413.28,31.05
414.01,19.17
414.73,11.60
415.45,8.19
416.18,7.07
416.90,6.88
417.62,7.13
418.34,7.48
419.07,7.62
419.79,7.78
420.51,8.10
421.23,7.96
421.96,7.81
422.68,6.59
423.40,5.97
424.12,6.97
424.85,8.44
425.57,9.31
426.29,9.88
427.01,10.16
427.74,9.96
428.46,9.88
429.18,10.57
429.91,11.73
430.63,12.40
431.35,11.85
432.07,10.42
432.80,9.79
433.52,9.15
434.24,8.40
434.96,7.58
435.69,6.47
436.41,5.69
437.13,5.71
437.85,6.35
438.58,7.29
439.30,8.61
440.02,10.88
440.74,14.16
441.47,17.32
442.19,18.98
442.91,18.76
443.64,17.90
444.36,17.04
445.08,14.12
445.80,10.14
446.53,5.87
447.25,2.70
447.97,1.02
448.69,0.02
449.42,-0.67
450.14,-0.68
450.86,0.15
451.58,1.37
452.31,2.45
453.03,3.59
453.75,5.04
454.47,5.71
455.20,6.37
455.92,7.50
456.64,8.94
457.36,10.44
458.09,10.95
458.81,10.17
459.53,8.94
460.26,8.05
460.98,7.44
461.70,6.79
462.42,6.27
463.15,6.21
463.87,6.29
464.59,6.12
465.31,6.18
466.04,6.24
466.76,7.40
467.48,9.23
468.20,11.06
468.93,12.91
469.65,15.00
470.37,17.86
471.09,22.64
471.82,29.75
472.54,37.21
473.26,41.83
473.99,42.19
474.71,38.85
475.43,32.56
476.15,28.56
476.88,24.56
477.60,17.32
478.32,12.72
479.04,10.75
479.77,10.67
480.49,11.70
481.21,12.86
481.93,13.39
482.66,13.35
483.38,12.93
484.10,12.02
484.82,10.93
485.55,10.21
486.27,9.93
486.99,10.15
487.72,10.60
488.44,11.04
489.16,11.95
489.88,11.97
490.61,11.17
491.33,10.19
492.05,9.72
492.77,10.50
493.50,12.17
494.22,13.32
494.94,13.54
495.66,13.72
496.39,14.24
497.11,14.76
497.83,15.34
498.55,15.74
499.28,16.13
500.00,16.75
501.00,16.82
502.01,16.42
503.02,15.31
504.03,13.45
505.04,11.81
506.05,11.17
507.06,10.91
508.07,10.16
509.08,8.99
510.09,7.77
511.10,6.69
512.11,6.15
513.12,6.32
514.13,6.49
515.14,7.26
516.15,7.65
517.16,7.90
518.17,8.81
519.18,9.89
520.19,9.98
521.20,9.49
522.21,9.61
523.22,10.49
524.23,11.55
525.24,12.11
526.26,11.37
527.27,9.49
528.28,8.65
529.29,7.81
530.30,7.21
531.31,7.84
532.32,9.23
533.33,10.36
534.34,10.80
535.35,11.14
536.36,11.53
537.37,11.55
538.38,11.67
539.39,13.00
540.40,15.24
541.41,16.69
542.42,16.65
543.43,16.27
544.44,15.88
545.45,14.87
546.46,13.59
547.47,12.64
548.48,12.51
549.49,12.95
550.50,13.87
551.51,15.45
552.52,17.36
553.53,19.27
554.54,21.71
555.55,25.96
556.56,33.19
557.57,43.60
558.58,55.95
559.59,61.60
560.60,67.26
561.61,73.51
562.62,72.14
563.63,63.90
564.64,52.33
565.65,41.87
566.66,35.44
567.67,32.94
568.68,33.03
569.69,34.71
570.70,36.89
571.71,38.97
572.72,41.71
573.73,46.71
574.74,51.66
575.76,56.60
576.77,76.13
577.78,110.32
578.79,160.12
579.80,219.90
580.81,277.90
581.82,318.83
582.83,328.59
583.84,301.13
584.85,244.05
585.86,176.55
586.87,118.40
587.88,79.69
588.89,59.35
589.90,54.76
590.91,50.16
591.92,44.76
592.93,38.95
593.94,32.07
594.95,25.57
595.96,20.86
596.97,17.84
597.98,15.73
598.99,14.56
600.00,15.03
601.00,17.53
602.18,21.44
603.36,25.02
604.54,26.91
605.71,27.00
606.89,27.09
608.07,25.66
609.25,22.71
610.43,19.29
611.61,16.71
612.79,15.07
613.96,13.67
615.14,12.08
616.32,10.59
617.50,10.08
618.68,10.81
619.86,11.77
621.04,11.86
622.21,11.46
623.39,11.73
624.57,12.41
625.75,13.10
626.93,15.26
628.11,17.90
629.29,20.78
630.46,23.39
631.64,24.87
632.82,24.44
634.00,22.22
635.18,19.05
636.36,15.69
637.54,13.02
638.71,11.44
639.89,10.15
641.07,8.51
642.25,7.86
643.43,7.21
644.61,6.87
645.79,6.84
646.96,6.17
648.14,4.78
649.32,3.28
650.50,2.14
651.68,1.50
652.86,1.56
654.04,2.53
655.21,3.97
656.39,4.93
657.57,5.04
658.75,4.79
659.93,4.77
661.11,4.76
662.29,5.24
663.46,6.09
664.64,6.81
665.82,7.15
667.00,7.21
668.18,7.43
669.36,8.50
670.54,10.48
671.71,12.50
672.89,13.81
674.07,15.00
675.25,17.36
676.43,21.43
677.61,24.15
678.79,26.87
679.96,33.04
681.14,38.63
682.32,42.06
683.50,42.76
684.68,40.82
685.86,35.92
687.04,28.44
688.21,20.33
689.39,13.56
690.57,8.95
691.75,6.56
692.93,6.02
694.11,6.52
695.29,6.84
696.46,7.16
697.64,7.32
698.82,6.93
700.00,6.54
701.00,6.68
702.98,7.06
704.96,7.03
706.94,6.72
708.92,6.62
710.90,6.53
712.88,5.81
714.86,4.53
716.84,3.22
718.82,2.13
720.80,1.66
722.78,1.84
724.76,2.02
726.74,2.26
728.72,1.77
730.70,1.46
732.68,1.74
734.66,1.89
736.64,1.93
738.62,2.56
740.60,3.00
742.58,2.09
744.56,0.66
746.54,0.19
748.52,0.80
750.50,1.88
752.48,2.36
754.46,2.83
756.44,3.02
758.42,2.62
760.40,2.66
762.38,3.40
764.36,3.89
766.34,3.86
768.32,4.22
770.30,5.34
772.28,6.84
774.26,8.69
776.24,10.60
778.22,11.58
780.20,11.46
782.18,11.36
784.16,11.25
786.14,11.54
788.12,11.32
790.10,9.38
792.08,6.48
794.06,4.90
796.04,5.37
798.02,6.15
800.00,5.90
801.00,5.23
803.36,5.17
805.71,5.61
808.07,5.41
810.43,4.27
812.79,3.96
815.14,3.64
817.50,4.40
819.86,5.27
822.21,4.90
824.57,3.76
826.93,3.34
829.29,3.96
831.64,4.73
834.00,5.11
836.36,5.23
838.71,5.19
841.07,4.86
843.43,4.25
845.79,3.58
848.14,3.28
850.50,2.97
852.86,2.30
855.21,1.90
857.57,2.62
859.93,4.26
862.29,5.23
864.64,4.65
867.00,3.28
869.36,2.14
871.71,1.48
874.07,1.05
876.43,0.80
878.79,0.88
881.14,0.97
883.50,0.63
885.86,0.43
888.21,0.24
890.57,0.71
892.93,1.88
895.29,2.55
897.64,2.18
900.00,1.31
901.00,0.67
904.67,0.67
908.33,1.04
912.00,0.84
915.67,-0.17
919.33,-0.78
923.00,-0.15
926.67,1.03
930.33,1.46
934.00,1.89
937.67,2.16
941.33,2.07
945.00,2.13
948.67,2.40
952.33,2.27
956.00,1.65
959.67,1.15
963.33,0.97
967.00,0.76
970.67,0.76
974.33,1.28
978.00,1.61
981.67,0.99
985.33,0.50
989.00,0.02
992.67,-0.15
996.33,0.49
1000.00,1.18
1001.00,1.74
1006.10,2.59
1011.21,3.82
1016.31,4.84
1021.41,4.73
1026.51,3.45
1031.62,1.92
1036.72,0.98
1041.82,1.17
1046.92,2.31
1052.03,2.71
1057.13,3.11
1062.23,2.86
1067.33,2.38
1072.44,2.27
1077.54,2.43
1082.64,2.59
1087.74,1.98
1092.85,0.18
1097.95,-1.75
1103.05,-2.63
1108.15,-2.41
1113.26,-1.60
1118.36,-0.63
1123.46,0.20
1128.56,1.10
1133.67,1.71
1138.77,2.32
1143.87,3.35
1148.97,3.46
1154.08,2.63
1159.18,1.48
1164.28,0.65
1169.38,0.31
1174.49,0.23
1179.59,0.50
1184.69,1.20
1189.79,1.65
1194.90,1.14
1200.00,0.28
1201.00,0.20
1210.06,0.50
1219.12,0.80
1228.18,1.27
1237.24,1.18
1246.30,0.27
1255.36,-1.06
1264.42,-1.87
1273.48,-2.07
1282.55,-2.02
1291.61,-1.47
1300.67,-0.49
1309.73,0.15
1318.79,0.36
1327.85,0.84
1336.91,1.72
1345.97,2.13
1355.03,2.55
1364.09,3.36
1373.15,4.38
1382.21,5.24
1391.27,5.40
1400.33,5.01
1409.39,4.46
1418.45,3.74
1427.52,3.21
1436.58,3.51
1445.64,4.34
1454.70,4.72
1463.76,4.26
1472.82,3.61
1481.88,3.57
1490.94,3.53
1500.00,4.13
1501.00,4.82
1510.24,4.91
1519.48,4.58
1528.72,4.91
1537.96,6.01
1547.20,6.32
1556.44,4.95
1565.69,3.14
1574.93,2.54
1584.17,3.00
1593.41,3.14
1602.65,2.75
1611.89,2.77
1621.13,2.80
1630.37,3.58
1639.61,4.41
1648.85,4.52
1658.09,3.47
1667.33,1.62
1676.57,0.38
1685.81,0.99
1695.06,2.81
1704.30,4.29
1713.54,5.07
1722.78,5.86
1732.02,7.01
1741.26,7.89
1750.50,7.89
1759.74,7.82
1768.98,7.75
1778.22,8.11
1787.46,8.33
1796.70,8.02
1805.94,7.33
1815.19,6.10
1824.43,4.85
1833.67,4.90
1842.91,6.20
1852.15,7.25
1861.39,7.43
1870.63,7.62
1879.87,8.20
1889.11,8.36
1898.35,7.98
1907.59,7.61
1916.83,6.27
1926.07,4.55
1935.31,3.07
1944.56,3.18
1953.80,4.99
1963.04,6.60
1972.28,6.74
1981.52,6.17
1990.76,5.78
2000.00,5.45
2001.00,4.79
2018.22,3.87
2035.45,3.16
2052.67,3.11
2069.90,3.06
2087.12,3.47
2104.34,4.00
2121.57,4.71
2138.79,5.50
2156.02,5.94
2173.24,6.29
2190.47,7.02
2207.69,7.54
2224.91,7.21
2242.14,6.57
2259.36,6.21
2276.59,5.92
2293.81,5.55
2311.03,5.62
2328.26,5.70
2345.48,6.78
2362.71,8.03
2379.93,8.58
2397.16,8.57
2414.38,8.36
2431.60,7.96
2448.83,7.62
2466.05,7.71
2483.28,7.87
2500.50,7.48
2517.72,6.75
2534.95,6.29
2552.17,6.22
2569.40,6.19
2586.62,6.17
2603.84,5.94
2621.07,5.61
2638.29,5.52
2655.52,5.77
2672.74,5.93
2689.97,5.71
2707.19,5.65
2724.41,6.38
2741.64,7.60
2758.86,8.18
2776.09,7.51
2793.31,6.31
2810.53,5.93
2827.76,7.19
2844.98,8.32
2862.21,9.45
2879.43,10.89
2896.66,10.28
2913.88,8.46
2931.10,6.89
2948.33,6.21
2965.55,6.44
2982.78,7.18
3000.00,7.79
3001.00,8.43
3025.99,9.53
3050.98,10.50
3075.98,10.48
3100.97,9.83
3125.96,9.63
3150.95,9.44
3175.94,9.33
3200.93,8.86
3225.93,7.74
3250.92,6.46
3275.91,5.88
3300.90,6.13
3325.89,6.49
3350.88,6.46
3375.87,6.26
3400.87,6.40
3425.86,7.06
3450.85,7.92
3475.84,8.78
3500.83,9.30
3525.82,9.83
3550.82,11.19
3575.81,12.47
3600.80,12.83
3625.79,11.94
3650.78,10.71
3675.77,10.11
3700.77,9.93
3725.76,9.51
3750.75,9.16
3775.74,9.49
3800.73,10.12
3825.73,10.43
3850.72,10.23
3875.71,9.73
3900.70,9.23
3925.69,7.70
3950.68,6.56
3975.68,6.02
4000.67,5.71
4025.66,5.72
4050.65,6.27
4075.64,7.10
4100.63,7.57
4125.62,7.29
4150.62,6.87
4175.61,7.13
4200.60,7.85
4225.59,8.40
4250.58,8.70
4275.58,8.65
4300.57,8.59
4325.56,7.91
4350.55,7.48
4375.54,8.08
4400.53,8.75
4425.52,8.50
4450.52,8.00
4475.51,8.32
4500.50,9.19
4525.49,9.26
4550.48,7.96
4575.48,6.73
4600.47,7.00
4625.46,8.34
4650.45,9.01
4675.44,9.69
4700.43,10.59
4725.42,10.86
4750.42,10.53
4775.41,10.02
4800.40,9.47
4825.39,8.82
4850.38,8.01
4875.37,7.15
4900.37,6.79
4925.36,7.24
4950.35,7.85
4975.34,8.01
5000.33,7.92
5025.33,7.79
5050.32,7.65
5075.31,7.19
5100.30,7.19
5125.29,7.73
5150.28,7.70
5175.27,7.14
5200.27,7.44
5225.26,8.66
5250.25,9.69
5275.24,10.16
5300.23,10.18
5325.23,9.71
5350.22,9.03
5375.21,8.60
5400.20,8.63
5425.19,8.65
5450.18,9.12
5475.17,9.86
5500.17,10.72
5525.16,11.80
5550.15,13.22
