Size (bp),Intensity
0.58,1774.09
1.00,1634.17
2.00,1192.75
2.42,702.88
2.84,353.19
3.26,173.19
3.68,101.51
4.10,77.67
4.52,74.34
4.94,71.01
5.36,69.56
5.79,68.94
6.21,68.05
6.63,66.13
7.05,62.19
7.47,55.99
7.89,47.87
8.31,38.79
8.73,30.33
9.15,23.61
9.57,19.09
9.99,16.99
10.41,16.77
10.83,16.81
11.25,16.85
11.67,15.96
12.09,14.48
12.52,13.20
12.94,11.72
13.36,9.45
13.78,7.25
14.20,6.14
14.62,5.77
15.04,5.68
15.46,6.31
15.88,7.51
16.30,8.12
16.72,7.55
17.14,7.02
17.56,6.50
17.98,5.89
18.40,5.69
18.82,5.30
19.24,4.85
19.67,5.23
20.09,6.51
20.51,7.62
20.93,7.67
21.35,6.50
21.77,4.53
22.19,2.71
22.61,1.90
23.03,2.02
23.45,2.15
23.87,2.28
24.29,2.34
24.71,2.37
25.13,2.17
25.55,1.75
25.97,1.77
26.39,2.32
26.82,2.66
27.24,2.62
27.66,2.62
28.08,2.64
28.50,2.28
28.92,1.59
29.34,1.02
29.76,0.86
30.18,0.71
30.60,0.54
31.02,0.60
31.44,0.88
31.86,0.92
32.28,0.51
32.70,0.25
33.12,0.64
33.55,1.16
33.97,1.05
34.39,0.94
34.81,1.74
35.23,2.82
35.65,3.50
36.07,3.85
36.49,4.20
36.91,4.66
37.33,3.80
37.75,2.24
38.17,1.97
38.59,3.63
39.01,5.73
39.43,6.42
39.85,5.57
40.27,5.01
40.70,5.59
41.12,5.63
41.54,4.19
41.96,2.74
42.38,2.36
42.80,1.98
43.22,1.26
43.64,0.85
44.06,1.56
44.48,3.09
44.90,4.16
45.32,3.89
45.74,3.11
46.16,3.26
46.58,4.51
47.00,6.10
47.42,7.32
47.85,7.56
48.27,6.72
48.69,6.16
49.11,5.59
49.53,5.28
49.95,6.41
50.37,8.79
50.79,11.38
51.21,12.74
51.63,12.25
52.05,10.70
52.47,9.28
52.89,8.75
53.31,9.57
53.73,11.77
54.15,14.68
54.58,16.93
55.00,17.42
55.42,17.90
55.84,18.39
56.26,18.81
56.68,18.69
57.10,18.16
57.52,17.58
57.94,16.43
58.36,14.74
58.78,14.26
59.20,16.28
59.62,19.86
60.04,23.11
60.46,25.05
60.88,25.78
61.30,25.68
61.73,25.58
62.15,24.83
62.57,24.71
62.99,25.98
63.41,27.84
63.83,29.04
64.25,28.61
64.67,26.17
65.09,23.32
65.51,22.47
65.93,23.60
66.35,24.40
66.77,23.99
67.19,23.68
67.61,23.94
68.03,24.20
68.45,24.78
68.88,24.74
69.30,23.94
69.72,22.22
70.14,19.63
70.56,16.85
70.98,14.82
71.40,14.09
71.82,14.48
72.24,15.28
72.66,15.75
73.08,15.60
73.50,15.22
73.92,15.21
74.34,15.20
74.76,14.96
75.18,13.51
75.61,11.56
76.03,10.94
76.45,11.77
76.87,12.49
77.29,12.18
77.71,11.08
78.13,9.82
78.55,9.14
78.97,9.39
79.39,10.11
79.81,10.73
80.23,10.79
80.65,10.85
81.07,9.94
81.49,8.41
81.91,7.63
82.33,7.93
82.76,8.14
83.18,7.98
83.60,8.83
84.02,11.02
84.44,12.85
84.86,13.04
85.28,12.02
85.70,10.74
86.12,10.01
86.54,10.22
86.96,10.43
87.38,11.67
87.80,12.59
88.22,12.80
88.64,13.00
89.06,13.71
89.48,14.40
89.91,14.68
90.33,15.43
90.75,17.34
91.17,19.08
91.59,19.22
92.01,18.86
92.43,19.82
92.85,20.78
93.27,21.74
93.69,22.82
94.11,22.09
94.53,20.32
94.95,19.04
95.37,18.83
95.79,19.09
96.21,19.39
96.64,20.10
97.06,21.87
97.48,24.85
97.90,28.13
98.32,30.29
98.74,31.40
99.16,32.25
99.58,33.09
100.00,36.09
101.00,39.89
101.52,44.24
102.04,48.43
102.56,50.32
103.08,48.65
103.61,44.70
104.13,40.28
104.65,36.37
105.17,33.80
105.69,33.00
106.21,33.58
106.73,35.10
107.25,38.27
107.77,41.31
108.29,44.34
108.82,53.12
109.34,63.20
109.86,73.52
110.38,82.96
110.90,89.61
111.42,92.21
111.94,91.23
112.46,88.13
112.98,83.79
113.51,77.95
114.03,71.05
114.55,64.92
115.07,60.55
115.59,58.80
116.11,57.05
116.63,53.57
117.15,50.40
117.67,48.17
118.19,47.51
118.72,49.11
119.24,51.77
119.76,52.33
120.28,49.61
120.80,45.83
121.32,43.37
121.84,42.82
122.36,44.09
122.88,46.75
123.41,48.02
123.93,49.30
124.45,49.84
124.97,48.42
125.49,47.24
126.01,47.49
126.53,48.01
127.05,48.10
127.57,48.57
128.09,49.15
128.62,48.34
129.14,46.02
129.66,44.25
130.18,45.05
130.70,47.57
131.22,48.34
131.74,49.12
132.26,48.90
132.78,48.40
133.31,48.47
133.83,48.47
134.35,48.13
134.87,48.24
135.39,49.29
135.91,50.57
136.43,51.49
136.95,52.34
137.47,53.01
137.99,52.97
138.52,52.36
139.04,52.02
139.56,51.67
140.08,50.75
140.60,49.18
141.12,47.49
141.64,46.96
142.16,47.70
142.68,48.70
143.21,49.86
143.73,52.05
144.25,55.88
144.77,61.68
145.29,69.12
145.81,76.05
146.33,79.49
146.85,78.84
147.37,78.18
147.89,73.65
148.42,68.62
148.94,64.41
149.46,60.36
149.98,55.96
150.50,52.04
151.02,49.82
151.54,49.57
152.06,50.59
152.58,52.47
153.11,55.50
153.63,59.31
154.15,62.28
154.67,62.57
155.19,62.86
155.71,60.77
156.23,57.13
156.75,53.84
157.27,51.92
157.79,50.81
158.32,50.09
158.84,50.38
159.36,51.66
159.88,52.97
160.40,53.98
160.92,55.20
161.44,57.12
161.96,59.84
162.48,61.50
163.01,63.16
163.53,67.52
164.05,75.10
164.57,88.61
165.09,109.49
165.61,137.49
166.13,170.21
166.65,203.39
167.17,233.79
167.69,259.87
168.22,277.42
168.74,277.82
169.26,254.33
169.78,210.29
170.30,184.48
170.82,158.68
171.34,113.07
171.86,80.14
172.38,60.39
172.91,51.81
173.43,50.77
173.95,52.69
174.47,54.49
174.99,55.29
175.51,54.82
176.03,52.79
176.55,49.81
177.07,47.23
177.59,45.84
178.12,45.74
178.64,45.64
179.16,46.27
179.68,46.94
180.20,46.96
180.72,46.42
181.24,46.14
181.76,47.09
182.28,49.14
182.81,50.77
183.33,51.25
183.85,51.69
184.37,52.96
184.89,54.54
185.41,55.56
185.93,55.50
186.45,55.45
186.97,54.23
187.49,52.89
188.02,52.35
188.54,52.41
189.06,52.93
189.58,54.38
190.10,56.71
190.62,59.37
191.14,62.32
191.66,65.48
192.18,68.02
192.71,69.30
193.23,69.72
193.75,69.93
194.27,70.13
194.79,70.45
195.31,69.21
195.83,65.62
196.35,61.11
196.87,57.80
197.39,56.75
197.92,57.69
198.44,59.05
198.96,59.57
199.48,59.99
200.00,61.43
201.00,63.17
201.59,63.94
202.17,63.92
202.76,63.91
203.34,64.05
203.93,64.43
204.51,64.40
205.10,64.33
205.69,65.37
206.27,67.45
206.86,69.89
207.44,73.09
208.03,77.55
208.62,82.19
209.20,85.74
209.79,88.69
210.37,92.79
210.96,96.67
211.54,100.56
212.13,118.03
212.72,154.75
213.30,214.67
213.89,286.55
214.47,346.53
215.06,370.83
215.64,349.55
216.23,293.87
216.82,228.09
217.40,172.23
217.99,133.31
218.57,109.66
219.16,97.34
219.75,95.45
220.33,93.55
220.92,98.38
221.50,114.27
222.09,141.62
222.67,174.09
223.26,199.59
223.85,208.15
224.43,199.55
225.02,181.88
225.60,163.11
226.19,145.85
226.78,128.98
227.36,111.18
227.95,93.26
228.53,85.75
229.12,78.23
229.70,68.30
230.29,62.91
230.88,60.52
231.46,59.85
232.05,59.63
232.63,59.12
233.22,58.24
233.80,57.21
234.39,57.40
234.98,61.36
235.56,70.05
236.15,82.16
236.73,95.79
237.32,101.57
237.91,107.35
238.49,111.45
239.08,105.84
239.66,94.17
240.25,82.04
240.83,72.89
241.42,67.28
242.01,64.11
242.59,62.33
243.18,61.91
243.76,62.90
244.35,64.20
244.93,64.39
245.52,63.59
246.11,63.30
246.69,63.85
247.28,64.41
247.86,66.19
248.45,66.99
249.04,66.27
249.62,65.46
250.21,66.07
250.79,68.47
251.38,72.61
251.96,78.03
252.55,83.22
253.14,86.74
253.72,88.54
254.31,89.63
254.89,91.13
255.48,92.18
256.07,93.23
256.65,95.01
257.24,95.81
257.82,95.91
258.41,96.08
258.99,97.05
259.58,98.43
260.17,98.74
260.75,97.49
261.34,95.87
261.92,95.19
262.51,95.77
263.09,96.94
263.68,97.86
264.27,98.50
264.85,99.13
265.44,102.32
266.02,107.13
266.61,111.73
267.20,116.03
267.78,121.26
268.37,127.67
268.95,135.58
269.54,145.82
270.12,157.26
270.71,167.10
271.30,173.79
271.88,177.73
272.47,180.58
273.05,182.52
273.64,184.47
274.22,190.33
274.81,197.13
275.40,203.22
275.98,207.16
276.57,207.82
277.15,205.62
277.74,202.72
278.33,200.84
278.91,200.36
279.50,201.69
280.08,205.77
280.67,212.86
281.25,222.54
281.84,229.09
282.43,235.65
283.01,255.71
283.60,286.64
284.18,328.73
284.77,378.73
285.36,434.61
285.94,499.57
286.53,581.91
287.11,691.29
287.70,831.10
288.28,991.37
288.87,1151.61
289.46,1292.55
290.04,1401.94
290.63,1436.04
291.21,1470.14
291.80,1485.55
292.38,1436.85
292.97,1323.37
293.56,1164.81
294.14,995.29
294.73,845.42
295.31,730.84
295.90,652.95
296.49,605.27
297.07,580.13
297.66,572.13
298.24,578.66
298.83,600.68
299.41,621.72
300.00,642.76
301.00,710.19
301.70,805.09
302.39,926.36
303.09,1075.55
303.79,1263.60
304.49,1507.41
305.18,1815.98
305.88,2181.71
306.58,2588.31
307.27,3034.51
307.97,3591.64
308.67,4514.71
309.37,6305.97
310.06,7901.43
310.76,9496.90
311.46,14114.91
312.15,19254.62
312.85,23272.23
313.55,24653.33
314.25,22954.97
314.94,19011.02
315.64,14252.13
316.34,9858.66
317.04,6408.77
317.73,3991.49
318.43,2443.87
319.13,1526.68
319.82,1018.98
320.52,886.57
321.22,754.16
321.92,622.45
322.61,559.43
323.31,530.29
324.01,516.37
324.70,507.04
325.40,495.98
326.10,479.17
326.80,454.55
327.49,423.14
328.19,388.64
328.89,354.89
329.58,324.83
330.28,300.54
330.98,291.31
331.68,282.09
332.37,267.17
333.07,253.09
333.77,239.34
334.46,227.63
335.16,218.80
335.86,211.55
336.56,204.83
337.25,198.66
337.95,192.40
338.65,184.92
339.35,176.20
340.04,167.39
340.74,159.44
341.44,155.84
342.13,152.24
342.83,145.18
343.53,138.18
344.23,131.48
344.92,124.78
345.62,117.79
346.32,111.30
347.01,106.36
347.71,102.88
348.41,100.04
349.11,97.93
349.80,97.21
350.50,97.90
351.20,99.65
351.89,100.79
352.59,101.92
353.29,103.03
353.99,101.00
354.68,96.33
355.38,91.80
356.08,88.82
356.77,86.52
357.47,84.24
358.17,82.04
358.87,79.48
359.56,76.33
360.26,73.88
360.96,73.55
361.65,74.83
362.35,75.55
363.05,76.26
363.75,77.24
364.44,77.60
365.14,77.01
365.84,76.08
366.54,75.89
367.23,76.03
367.93,75.29
368.63,73.88
369.32,72.96
370.02,72.59
370.72,71.48
371.42,68.86
372.11,66.08
372.81,65.53
373.51,64.99
374.20,65.10
374.90,64.13
375.60,60.90
376.30,56.79
376.99,54.31
377.69,54.21
378.39,54.92
379.08,54.78
379.78,53.64
380.48,52.03
381.18,50.50
381.87,49.54
382.57,49.04
383.27,48.73
383.96,48.42
384.66,47.17
385.36,44.98
386.06,42.14
386.75,39.67
387.45,38.24
388.15,37.74
388.85,38.16
389.54,39.10
390.24,39.31
390.94,38.26
391.63,36.72
392.33,35.44
393.03,34.83
393.73,34.93
394.42,35.04
395.12,35.68
395.82,35.98
396.51,35.48
397.21,34.62
397.91,34.09
398.61,34.06
399.30,34.25
400.00,34.07
401.00,33.22
401.72,32.23
402.45,31.45
403.17,30.87
403.89,30.79
404.61,31.06
405.34,31.33
406.06,31.91
406.78,32.19
407.50,32.43
408.23,32.74
408.95,32.80
409.67,32.38
410.39,31.81
411.12,31.50
411.84,31.51
412.56,31.75
413.28,31.80
414.01,31.10
414.73,29.71
415.45,28.23
416.18,27.74
416.90,27.26
417.62,27.53
418.34,29.11
419.07,30.53
419.79,30.41
420.51,29.21
421.23,28.19
421.96,28.02
422.68,28.63
423.40,29.45
424.12,29.96
424.85,30.25
425.57,30.39
426.29,29.83
427.01,28.84
427.74,27.85
428.46,24.86
429.18,22.49
429.91,21.99
430.63,23.45
431.35,26.03
432.07,28.31
432.80,29.34
433.52,29.67
434.24,30.11
434.96,30.46
435.69,30.44
436.41,30.02
437.13,28.82
437.85,28.04
438.58,27.26
439.30,26.75
440.02,27.70
440.74,29.16
441.47,30.22
442.19,30.65
442.91,30.54
443.64,30.32
444.36,30.23
445.08,29.76
445.80,28.67
446.53,28.00
447.25,28.71
447.97,29.96
448.69,30.08
449.42,30.19
450.14,29.10
450.86,27.79
451.58,27.14
452.31,26.83
453.03,26.62
453.75,26.83
454.47,27.28
455.20,27.74
455.92,28.23
456.64,28.65
457.36,29.04
458.09,29.39
458.81,29.22
459.53,28.73
460.26,28.25
460.98,27.13
461.70,27.10
462.42,28.60
463.15,30.46
463.87,31.26
464.59,30.98
465.31,30.68
466.04,31.00
466.76,31.33
467.48,30.78
468.20,29.91
468.93,30.29
469.65,32.31
470.37,33.59
471.09,34.87
471.82,36.86
472.54,38.00
473.26,38.72
473.99,39.38
474.71,39.89
475.43,39.82
476.15,38.73
476.88,36.95
477.60,35.49
478.32,35.15
479.04,35.87
479.77,36.97
480.49,37.71
481.21,37.71
481.93,37.72
482.66,37.08
483.38,36.34
484.10,36.17
484.82,36.39
485.55,36.20
486.27,35.51
486.99,34.74
487.72,34.11
488.44,33.79
489.16,33.57
489.88,33.37
490.61,33.54
491.33,33.73
492.05,33.40
492.77,33.08
493.50,32.09
494.22,32.06
494.94,33.02
495.66,34.26
496.39,35.52
497.11,36.35
497.83,36.18
498.55,35.42
499.28,34.72
500.00,34.27
501.00,34.10
502.01,33.86
503.02,33.21
504.03,32.90
505.04,32.59
506.05,32.35
507.06,31.71
508.07,30.09
509.08,28.44
510.09,27.78
511.10,27.88
512.11,28.05
513.12,28.01
514.13,27.62
515.14,26.95
516.15,26.56
517.16,27.11
518.17,28.23
519.18,28.55
520.19,28.88
521.20,29.00
522.21,29.35
523.22,29.68
524.23,29.41
525.24,28.96
526.26,28.68
527.27,28.19
528.28,27.27
529.29,26.11
530.30,25.00
531.31,24.26
532.32,23.94
533.33,23.85
534.34,23.75
535.35,23.65
536.36,23.26
537.37,23.11
538.38,23.52
539.39,24.08
540.40,24.27
541.41,24.41
542.42,25.01
543.43,25.29
544.44,24.20
545.45,22.33
546.46,21.00
547.47,20.41
548.48,20.13
549.49,20.14
550.50,20.15
551.51,20.52
552.52,21.20
553.53,22.07
554.54,22.89
555.55,23.59
556.56,24.27
557.57,24.14
558.58,22.63
559.59,21.19
560.60,21.69
561.61,23.43
562.62,24.23
563.63,23.73
564.64,23.56
565.65,23.39
566.66,23.70
567.67,23.78
568.68,23.44
569.69,23.55
570.70,24.49
571.71,25.49
572.72,25.39
573.73,23.95
574.74,22.72
575.76,23.42
576.77,25.77
577.78,28.21
578.79,30.15
579.80,30.98
580.81,31.82
581.82,33.23
582.83,34.18
583.84,34.47
584.85,33.94
585.86,32.83
586.87,31.75
587.88,31.49
588.89,32.30
589.90,33.34
590.91,33.37
591.92,31.95
592.93,29.56
593.94,27.17
594.95,26.42
595.96,25.67
596.97,25.53
597.98,26.55
598.99,27.77
600.00,28.17
601.00,27.43
602.18,25.90
603.36,24.06
604.54,22.59
605.71,22.33
606.89,23.27
608.07,24.04
609.25,23.54
610.43,22.48
611.61,22.24
612.79,22.00
613.96,22.09
615.14,22.25
616.32,22.44
617.50,22.83
618.68,23.27
619.86,23.60
621.04,23.91
622.21,24.24
623.39,24.29
624.57,23.42
625.75,21.39
626.93,19.25
628.11,18.36
629.29,18.77
630.46,19.20
631.64,19.63
632.82,20.26
634.00,20.26
635.18,19.97
636.36,20.06
637.54,20.50
638.71,21.16
639.89,22.27
641.07,23.33
642.25,23.60
643.43,23.34
644.61,22.93
645.79,22.11
646.96,20.98
648.14,20.51
649.32,20.03
650.50,19.14
651.68,18.25
652.86,17.79
654.04,18.16
655.21,18.96
656.39,18.73
657.57,17.33
658.75,16.67
659.93,17.45
661.11,18.33
662.29,18.52
663.46,18.34
664.64,18.12
665.82,17.95
667.00,17.78
668.18,16.97
669.36,16.15
670.54,16.59
671.71,18.25
672.89,19.36
674.07,18.83
675.25,17.46
676.43,16.48
677.61,16.29
678.79,16.40
679.96,16.12
681.14,15.75
682.32,16.08
683.50,16.42
684.68,16.75
685.86,16.87
687.04,16.63
688.21,16.81
689.39,17.26
690.57,17.28
691.75,16.81
692.93,16.56
694.11,16.75
695.29,16.88
696.46,16.65
697.64,16.29
698.82,16.18
700.00,16.22
701.00,16.01
702.98,15.80
704.96,15.06
706.94,15.10
708.92,15.91
710.90,16.13
712.88,15.55
714.86,15.43
716.84,15.90
718.82,15.93
720.80,15.26
722.78,14.31
724.76,13.46
726.74,13.30
728.72,14.22
730.70,14.84
732.68,15.46
734.66,15.87
736.64,15.32
738.62,14.42
740.60,13.67
742.58,13.72
744.56,14.94
746.54,16.52
748.52,17.19
750.50,16.87
752.48,16.56
754.46,16.90
756.44,17.70
758.42,18.48
760.40,18.56
762.38,18.64
764.36,17.74
766.34,16.21
768.32,15.07
770.30,14.92
772.28,15.49
774.26,16.17
776.24,16.61
778.22,16.86
780.20,17.10
782.18,17.63
784.16,18.29
786.14,18.16
788.12,17.57
790.10,17.94
792.08,18.31
794.06,20.48
796.04,22.17
798.02,22.52
800.00,22.42
801.00,22.63
803.36,22.55
805.71,21.56
808.07,20.40
810.43,19.90
812.79,19.67
815.14,19.78
817.50,21.11
819.86,23.07
822.21,23.47
824.57,23.86
826.93,23.32
829.29,22.68
831.64,22.07
834.00,20.64
836.36,18.55
838.71,16.73
841.07,15.55
843.43,14.88
845.79,14.58
848.14,14.57
850.50,15.12
852.86,16.37
855.21,17.50
857.57,17.50
859.93,17.50
862.29,16.50
864.64,15.60
867.00,15.57
869.36,16.13
871.71,16.63
874.07,16.82
876.43,16.64
878.79,15.98
881.14,15.00
883.50,14.10
885.86,13.53
888.21,13.32
890.57,13.49
892.93,13.70
895.29,13.91
897.64,14.10
900.00,14.23
901.00,14.98
904.67,15.94
908.33,16.20
912.00,16.08
915.67,16.19
919.33,16.57
923.00,17.10
926.67,17.48
930.33,17.42
934.00,17.14
937.67,16.78
941.33,16.57
945.00,16.36
948.67,16.33
952.33,17.08
956.00,18.23
959.67,18.85
963.33,18.50
967.00,17.69
970.67,17.25
974.33,17.24
978.00,17.08
981.67,16.74
985.33,16.79
989.00,17.34
992.67,17.73
996.33,17.55
1000.00,17.37
1001.00,16.29
1006.10,15.14
1011.21,14.70
1016.31,15.18
1021.41,15.91
1026.51,16.15
1031.62,15.82
1036.72,15.40
1041.82,14.97
1046.92,14.15
1052.03,13.00
1057.13,12.03
1062.23,11.72
1067.33,12.05
1072.44,12.38
1077.54,13.77
1082.64,14.60
1087.74,13.98
1092.85,12.83
1097.95,12.45
1103.05,12.80
1108.15,12.86
1113.26,12.50
1118.36,12.79
1123.46,13.90
1128.56,14.46
1133.67,13.93
1138.77,13.44
1143.87,13.41
1148.97,13.39
1154.08,13.10
1159.18,13.14
1164.28,14.82
1169.38,17.18
1174.49,18.10
1179.59,17.34
1184.69,16.18
1189.79,15.42
1194.90,15.03
1200.00,14.92
1201.00,15.08
1210.06,15.29
1219.12,15.24
1228.18,15.21
1237.24,15.18
1246.30,15.35
1255.36,14.97
1264.42,13.12
1273.48,10.49
1282.55,9.08
1291.61,10.35
1300.67,13.13
1309.73,14.85
1318.79,14.78
1327.85,14.18
1336.91,13.98
1345.97,14.12
1355.03,14.55
1364.09,15.36
1373.15,15.86
1382.21,16.35
1391.27,16.69
1400.33,16.09
1409.39,15.64
1418.45,15.92
1427.52,15.76
1436.58,14.77
1445.64,14.11
1454.70,14.07
1463.76,14.18
1472.82,15.29
1481.88,17.59
1490.94,18.89
1500.00,18.04
1501.00,17.45
1510.24,16.86
1519.48,16.78
1528.72,17.10
1537.96,16.85
1547.20,16.21
1556.44,15.70
1565.69,15.17
1574.93,14.32
1584.17,13.54
1593.41,13.16
1602.65,12.99
1611.89,13.21
1621.13,14.04
1630.37,14.87
1639.61,15.14
1648.85,15.41
1658.09,16.40
1667.33,17.56
1676.57,17.45
1685.81,15.89
1695.06,14.30
1704.30,14.24
1713.54,15.97
1722.78,17.59
1732.02,16.96
1741.26,14.70
1750.50,13.00
1759.74,12.80
1768.98,13.50
1778.22,13.83
1787.46,14.16
1796.70,14.14
1805.94,13.66
1815.19,13.38
1824.43,13.20
1833.67,12.50
1842.91,11.76
1852.15,11.98
1861.39,12.78
1870.63,13.19
1879.87,13.25
1889.11,13.46
1898.35,13.79
1907.59,13.90
1916.83,13.82
1926.07,13.75
1935.31,13.69
1944.56,13.75
1953.80,13.81
1963.04,14.16
1972.28,14.61
1981.52,14.49
1990.76,13.87
2000.00,13.65
2001.00,14.26
2018.22,14.76
2035.45,14.05
2052.67,12.55
2069.90,11.68
2087.12,11.83
2104.34,11.99
2121.57,12.65
2138.79,12.77
2156.02,12.59
2173.24,12.23
2190.47,11.36
2207.69,10.59
2224.91,10.88
2242.14,11.71
2259.36,12.12
2276.59,12.21
2293.81,12.48
2311.03,12.82
2328.26,12.98
2345.48,12.90
2362.71,12.81
2379.93,12.00
2397.16,10.60
2414.38,9.83
2431.60,10.94
2448.83,13.21
2466.05,14.51
2483.28,13.65
2500.50,11.62
2517.72,10.23
2534.95,9.95
2552.17,10.19
2569.40,10.66
2586.62,11.18
2603.84,11.32
2621.07,11.46
2638.29,11.67
2655.52,12.03
2672.74,12.28
2689.97,12.14
2707.19,11.75
2724.41,11.35
2741.64,11.01
2758.86,10.63
2776.09,10.29
2793.31,10.29
2810.53,10.37
2827.76,9.94
2844.98,9.33
2862.21,9.26
2879.43,9.19
2896.66,9.13
2913.88,8.55
2931.10,8.02
2948.33,8.39
2965.55,9.37
2982.78,10.29
3000.00,10.94
3001.00,11.30
3025.99,11.44
3050.98,11.27
3075.98,10.57
3100.97,9.71
3125.96,9.45
3150.95,9.61
3175.94,9.78
3200.93,10.01
3225.93,9.83
3250.92,9.47
3275.91,9.25
3300.90,9.40
3325.89,10.18
3350.88,11.70
3375.87,13.23
3400.87,13.56
3425.86,12.47
3450.85,11.09
3475.84,10.41
3500.83,10.25
3525.82,10.15
3550.82,10.04
3575.81,9.55
3600.80,8.82
3625.79,7.79
3650.78,6.92
3675.77,6.92
3700.77,7.53
3725.76,7.89
3750.75,7.86
3775.74,7.71
3800.73,7.38
3825.73,6.90
3850.72,6.54
3875.71,6.47
3900.70,6.59
3925.69,6.70
3950.68,7.27
3975.68,7.93
4000.67,8.29
4025.66,8.23
4050.65,7.82
4075.64,7.34
4100.63,7.54
4125.62,8.73
4150.62,9.69
4175.61,9.36
4200.60,8.63
4225.59,8.65
