Size (bp),Intensity
0.58,2189.72
1.00,1931.60
2.00,1356.09
2.42,772.92
2.84,377.78
3.26,181.61
3.68,106.80
4.10,84.25
4.52,79.11
4.94,78.53
5.36,78.92
5.79,79.00
6.21,79.07
6.63,77.29
7.05,72.38
7.47,65.01
7.89,56.40
8.31,47.13
8.73,37.87
9.15,29.90
9.57,24.26
9.99,20.86
10.41,19.11
10.83,18.71
11.25,19.22
11.67,19.64
12.09,19.14
12.52,17.72
12.94,15.83
13.36,13.95
13.78,12.41
14.20,11.17
14.62,10.37
15.04,10.51
15.46,11.43
15.88,12.03
16.30,11.84
16.72,11.65
17.14,10.82
17.56,10.20
17.98,9.93
18.40,10.21
18.82,11.10
19.24,11.93
19.67,12.24
20.09,12.44
20.51,12.58
20.93,12.19
21.35,11.47
21.77,11.07
22.19,10.91
22.61,10.46
23.03,9.74
23.45,9.06
23.87,8.27
24.29,7.41
24.71,7.20
25.13,7.92
25.55,8.87
25.97,9.39
26.39,9.61
26.82,9.76
27.24,9.92
27.66,9.89
28.08,8.79
28.50,7.20
28.92,6.34
29.34,6.43
29.76,6.88
30.18,7.06
30.60,6.41
31.02,5.05
31.44,3.87
31.86,3.58
32.28,4.05
32.70,4.69
33.12,5.14
33.55,5.14
33.97,4.63
34.39,4.22
34.81,4.63
35.23,5.74
35.65,6.91
36.07,7.77
36.49,8.51
36.91,9.42
37.33,9.98
37.75,10.54
38.17,12.28
38.59,14.92
39.01,17.46
39.43,18.35
39.85,17.59
40.27,16.43
40.70,15.20
41.12,13.38
41.54,11.32
41.96,9.76
42.38,9.04
42.80,9.62
43.22,11.63
43.64,14.11
44.06,16.27
44.48,18.50
44.90,20.96
45.32,22.30
45.74,21.30
46.16,18.61
46.58,15.75
47.00,13.56
47.42,12.53
47.85,12.74
48.27,12.95
48.69,14.56
49.11,16.48
49.53,17.28
49.95,16.37
50.37,15.34
50.79,15.84
51.21,17.43
51.63,18.77
52.05,19.26
52.47,18.87
52.89,17.79
53.31,16.87
53.73,17.51
54.15,19.97
54.58,22.58
55.00,23.94
55.42,24.47
55.84,24.36
56.26,22.97
56.68,20.95
57.10,19.47
57.52,18.11
57.94,16.44
58.36,15.98
58.78,15.53
59.20,16.31
59.62,18.12
60.04,19.47
60.46,19.29
60.88,17.87
61.30,16.45
61.73,16.07
62.15,17.04
62.57,18.78
62.99,19.88
63.41,19.49
63.83,18.73
64.25,19.66
64.67,22.65
65.09,25.88
65.51,27.69
65.93,28.05
66.35,28.16
66.77,29.25
67.19,31.14
67.61,32.02
68.03,30.77
68.45,28.45
68.88,27.34
69.30,26.22
69.72,23.92
70.14,21.61
70.56,20.00
70.98,19.44
71.40,19.67
71.82,20.42
72.24,21.28
72.66,21.25
73.08,19.71
73.50,17.62
73.92,16.07
74.34,14.90
74.76,13.79
75.18,13.24
75.61,13.63
76.03,14.47
76.45,14.97
76.87,14.91
77.29,14.60
77.71,14.13
78.13,13.50
78.55,13.10
78.97,13.13
79.39,13.16
79.81,13.63
80.23,14.45
80.65,15.11
81.07,14.89
81.49,14.28
81.91,14.28
82.33,14.81
82.76,15.15
83.18,15.06
83.60,14.62
84.02,13.78
84.44,12.70
84.86,12.13
85.28,12.56
85.70,13.59
86.12,14.71
86.54,15.65
86.96,16.29
87.38,17.18
87.80,18.86
88.22,20.24
88.64,19.94
89.06,19.32
89.48,19.96
89.91,20.61
90.33,23.24
90.75,25.31
91.17,26.73
91.59,27.66
92.01,27.16
92.43,25.41
92.85,24.08
93.27,23.86
93.69,24.01
94.11,24.12
94.53,24.42
94.95,24.89
95.37,25.23
95.79,25.71
96.21,27.12
96.64,29.40
97.06,31.66
97.48,33.76
97.90,36.07
98.32,38.41
98.74,40.49
99.16,42.15
99.58,43.05
100.00,43.18
101.00,43.30
101.52,43.19
102.04,42.58
102.56,41.89
103.08,41.95
103.61,42.38
104.13,42.37
104.65,42.36
105.17,43.19
105.69,45.20
106.21,48.89
106.73,55.82
107.25,68.12
107.77,86.53
108.29,108.95
108.82,130.90
109.34,147.77
109.86,156.85
110.38,157.96
110.90,152.94
111.42,144.08
111.94,133.02
112.46,120.99
112.98,108.97
113.51,103.37
114.03,97.77
114.55,88.27
115.07,80.71
115.59,74.16
116.11,68.06
116.63,63.20
117.15,60.61
117.67,60.22
118.19,60.64
118.72,60.30
119.24,58.53
119.76,55.51
120.28,52.01
120.80,49.25
121.32,48.34
121.84,49.70
122.36,52.35
122.88,54.32
123.41,54.74
123.93,54.82
124.45,55.77
124.97,57.13
125.49,57.63
126.01,56.97
126.53,56.52
127.05,56.07
127.57,55.43
128.09,54.72
128.62,54.22
129.14,54.46
129.66,54.77
130.18,54.36
130.70,53.89
131.22,54.55
131.74,56.16
132.26,57.28
132.78,57.20
133.31,56.70
133.83,56.79
134.35,57.54
134.87,57.98
135.39,57.29
135.91,56.14
136.43,55.78
136.95,56.02
137.47,55.38
137.99,53.48
138.52,51.68
139.04,50.69
139.56,50.23
140.08,49.77
140.60,48.72
141.12,48.41
141.64,49.29
142.16,50.61
142.68,51.24
143.21,51.66
143.73,54.25
144.25,59.89
144.77,66.14
145.29,69.77
145.81,69.44
146.33,65.92
146.85,60.76
147.37,55.28
147.89,50.54
148.42,47.23
148.94,45.00
149.46,43.03
149.98,41.40
150.50,41.01
151.02,42.40
151.54,45.57
152.06,47.67
152.58,49.77
153.11,52.69
153.63,52.10
154.15,48.80
154.67,45.38
155.19,42.74
155.71,40.58
156.23,39.38
156.75,39.60
157.27,40.56
157.79,41.28
158.32,41.45
158.84,41.19
159.36,40.53
159.88,40.08
160.40,40.83
160.92,42.48
161.44,43.68
161.96,44.53
162.48,47.06
163.01,53.49
163.53,64.95
164.05,80.82
164.57,98.85
165.09,107.78
165.61,116.71
166.13,134.09
166.65,151.62
167.17,166.07
167.69,169.11
168.22,154.75
168.74,126.36
169.26,94.08
169.78,67.13
170.30,49.16
170.82,39.05
171.34,34.50
171.86,33.72
172.38,34.92
172.91,36.56
173.43,37.66
173.95,37.59
174.47,36.47
174.99,35.06
175.51,33.90
176.03,32.96
176.55,32.31
177.07,32.42
177.59,33.60
178.12,34.37
178.64,35.13
179.16,35.82
179.68,35.63
180.20,35.23
180.72,34.68
181.24,34.16
181.76,34.24
182.28,34.93
182.81,35.71
183.33,36.11
183.85,35.94
184.37,35.58
184.89,35.81
185.41,36.77
185.93,37.66
186.45,37.81
186.97,37.48
187.49,37.33
188.02,37.61
188.54,38.73
189.06,41.25
189.58,44.42
190.10,46.79
190.62,47.99
191.14,48.04
191.66,48.09
192.18,46.85
192.71,44.79
193.23,42.73
193.75,40.85
194.27,39.44
194.79,38.93
195.31,38.82
195.83,38.16
196.35,36.85
196.87,35.93
197.39,36.46
197.92,37.94
198.44,38.95
198.96,39.28
199.48,39.56
200.00,39.62
201.00,39.03
201.59,38.25
202.17,38.09
202.76,38.87
203.34,40.50
203.93,42.75
204.51,45.34
205.10,46.63
205.69,47.92
206.27,50.24
206.86,52.26
207.44,53.66
208.03,54.24
208.62,54.41
209.20,55.18
209.79,58.82
210.37,69.44
210.96,90.66
211.54,121.29
212.13,153.10
212.72,173.78
213.30,174.28
213.89,155.27
214.47,126.64
215.06,99.86
215.64,80.27
216.23,66.75
216.82,57.50
217.40,53.30
217.99,54.89
218.57,60.95
219.16,69.95
219.75,75.43
220.33,80.90
220.92,91.60
221.50,98.42
222.09,98.67
222.67,92.90
223.26,84.41
223.85,76.79
224.43,71.76
225.02,68.63
225.60,65.80
226.19,62.63
226.78,59.24
227.36,55.75
227.95,52.63
228.53,50.52
229.12,49.63
229.70,49.70
230.29,50.33
230.88,51.23
231.46,52.61
232.05,54.66
232.63,57.17
233.22,60.06
233.80,63.87
234.39,66.70
234.98,69.53
235.56,76.67
236.15,82.23
236.73,82.76
237.32,77.82
237.91,69.85
238.49,62.31
239.08,57.91
239.66,57.15
240.25,58.68
240.83,60.99
241.42,62.94
242.01,63.94
242.59,64.11
243.18,63.97
243.76,63.86
244.35,63.83
244.93,63.83
245.52,63.70
246.11,63.41
246.69,63.25
247.28,63.76
247.86,65.53
248.45,67.01
249.04,68.50
249.62,71.86
250.21,75.32
250.79,79.09
251.38,82.54
251.96,84.99
252.55,86.79
253.14,88.74
253.72,91.12
254.31,93.20
254.89,94.13
255.48,94.16
256.07,94.32
256.65,95.05
257.24,95.41
257.82,94.39
258.41,92.72
258.99,91.61
259.58,91.16
260.17,91.13
260.75,91.53
261.34,92.27
261.92,93.33
262.51,95.28
263.09,97.19
263.68,99.09
264.27,105.14
264.85,112.70
265.44,120.84
266.02,128.95
266.61,136.95
267.20,145.48
267.78,154.45
268.37,161.82
268.95,165.46
269.54,165.56
270.12,164.57
270.71,165.24
271.30,168.62
271.88,173.74
272.47,179.36
273.05,185.69
273.64,193.72
274.22,203.74
274.81,215.86
275.40,230.66
275.98,247.49
276.57,264.02
277.15,278.13
277.74,283.25
278.33,288.37
278.91,293.55
279.50,294.44
280.08,295.67
280.67,303.90
281.25,324.29
281.84,358.71
282.43,405.65
283.01,462.04
283.60,528.38
284.18,612.59
284.77,726.37
285.36,875.70
285.94,1051.37
286.53,1227.49
287.11,1374.32
287.70,1476.52
288.28,1536.80
288.87,1561.43
289.46,1545.69
290.04,1476.71
290.63,1352.02
291.21,1192.50
291.80,1033.22
292.38,968.21
292.97,903.20
293.56,814.03
294.14,761.92
294.73,736.56
295.31,729.11
295.90,735.06
296.49,753.29
297.07,785.37
297.66,836.09
298.24,912.54
298.83,1019.98
299.41,1159.52
300.00,1336.18
301.00,1571.23
301.70,1897.63
302.39,2331.96
303.09,2845.88
303.79,3365.90
304.49,3811.99
305.18,4176.97
305.88,4661.74
306.58,5820.21
307.27,8455.55
307.97,13014.00
308.67,15913.06
309.37,18812.13
310.06,23933.06
310.76,26175.12
311.46,24466.81
312.15,19616.56
312.85,13678.98
313.55,8516.33
314.25,4911.79
314.94,2741.59
315.64,1558.73
316.34,957.67
317.04,667.46
317.73,532.88
318.43,472.79
319.13,446.46
319.82,434.71
320.52,429.59
321.22,427.62
321.92,425.72
322.61,419.94
323.31,406.77
324.01,385.02
324.70,356.39
325.40,325.00
326.10,310.50
326.80,296.00
327.49,273.60
328.19,258.77
328.89,248.52
329.58,239.08
330.28,229.76
330.98,222.11
331.68,216.95
332.37,213.95
333.07,212.34
333.77,210.96
334.46,208.20
335.16,203.18
335.86,196.87
336.56,190.74
337.25,185.49
337.95,181.15
338.65,176.99
339.35,171.71
340.04,164.74
340.74,157.05
341.44,150.10
342.13,144.44
342.83,139.83
343.53,138.00
344.23,136.17
344.92,133.94
345.62,133.78
346.32,136.14
347.01,141.13
347.71,148.17
348.41,155.64
349.11,161.28
349.80,163.29
350.50,161.09
351.20,155.29
351.89,146.90
352.59,136.76
353.29,126.12
353.99,116.65
354.68,109.37
355.38,104.04
356.08,99.66
356.77,95.79
357.47,93.40
358.17,93.40
358.87,94.65
359.56,95.43
360.26,95.79
360.96,96.14
361.65,98.27
362.35,101.30
363.05,103.00
363.75,102.16
364.44,99.59
365.14,96.73
365.84,94.14
366.54,91.70
367.23,89.37
367.93,87.59
368.63,87.14
369.32,87.59
370.02,86.65
370.72,82.76
371.42,77.32
372.11,73.06
372.81,70.90
373.51,69.38
374.20,66.99
374.90,63.87
375.60,60.74
376.30,58.24
376.99,57.08
377.69,56.94
378.39,56.80
379.08,55.68
379.78,53.27
380.48,50.78
381.18,48.72
381.87,46.35
382.57,43.52
383.27,41.24
383.96,39.83
384.66,38.48
385.36,36.86
386.06,35.26
386.75,33.95
387.45,33.25
388.15,33.37
388.85,33.89
389.54,33.93
390.24,33.14
390.94,31.96
391.63,31.06
392.33,30.65
393.03,30.70
393.73,31.13
394.42,31.85
395.12,32.12
395.82,32.40
396.51,32.10
397.21,31.00
397.91,30.18
398.61,30.32
399.30,30.66
400.00,30.16
401.00,29.20
401.72,28.72
402.45,28.23
403.17,26.87
403.89,25.47
404.61,25.58
405.34,27.11
406.06,28.48
406.78,28.68
407.50,28.14
408.23,27.70
408.95,27.57
409.67,27.49
410.39,27.31
411.12,27.13
411.84,27.35
412.56,28.02
413.28,28.29
414.01,28.55
414.73,28.52
415.45,28.08
416.18,27.41
416.90,26.80
417.62,26.77
418.34,27.27
419.07,27.89
419.79,28.72
420.51,29.72
421.23,30.08
421.96,29.16
422.68,27.67
423.40,26.92
424.12,26.87
424.85,26.87
425.57,27.43
426.29,28.79
427.01,29.70
427.74,29.37
428.46,28.35
429.18,27.23
429.91,25.85
430.63,24.24
431.35,23.91
432.07,23.59
432.80,24.84
433.52,27.21
434.24,29.27
434.96,30.02
435.69,29.55
436.41,29.21
437.13,29.96
437.85,31.60
438.58,33.25
439.30,33.78
440.02,33.11
440.74,32.30
441.47,31.64
442.19,30.81
442.91,30.11
443.64,29.89
444.36,30.03
445.08,30.15
445.80,29.86
446.53,29.12
447.25,28.23
447.97,27.37
448.69,26.73
449.42,26.56
450.14,26.38
450.86,26.24
451.58,26.49
452.31,27.51
453.03,29.01
453.75,29.97
454.47,29.79
455.20,28.83
455.92,27.71
456.64,26.44
457.36,25.21
458.09,24.99
458.81,26.25
459.53,27.78
460.26,28.12
460.98,27.45
461.70,27.05
462.42,27.22
463.15,27.09
463.87,26.64
464.59,26.68
465.31,27.31
466.04,28.18
466.76,28.64
467.48,29.09
468.20,29.68
468.93,30.13
469.65,31.24
470.37,33.18
471.09,34.91
471.82,35.62
472.54,35.97
473.26,36.77
473.99,37.25
474.71,36.55
475.43,34.97
476.15,32.91
476.88,30.58
477.60,28.89
478.32,28.63
479.04,29.28
479.77,29.59
480.49,29.00
481.21,28.15
481.93,27.39
482.66,26.17
483.38,24.93
484.10,24.75
484.82,25.04
485.55,25.34
486.27,25.96
486.99,26.59
487.72,27.01
488.44,26.93
489.16,26.99
489.88,27.71
490.61,28.18
491.33,27.55
492.05,26.77
492.77,27.25
493.50,28.69
494.22,29.44
494.94,28.75
495.66,27.55
496.39,27.03
497.11,27.61
497.83,29.25
498.55,31.22
499.28,31.78
500.00,30.26
501.00,28.42
502.01,27.86
503.02,27.90
504.03,27.65
505.04,27.40
506.05,26.46
507.06,25.64
508.07,24.98
509.08,24.43
510.09,24.16
511.10,23.85
512.11,22.94
513.12,22.38
514.13,23.58
515.14,25.90
516.15,27.18
517.16,26.39
518.17,24.72
519.18,24.07
520.19,24.83
521.20,25.78
522.21,25.80
523.22,25.06
524.23,24.73
525.24,25.51
526.26,26.67
527.27,27.06
528.28,26.67
529.29,26.39
530.30,26.11
531.31,25.42
532.32,24.43
533.33,23.45
534.34,22.96
535.35,23.24
536.36,23.98
537.37,24.40
538.38,24.30
539.39,24.24
540.40,24.51
541.41,24.68
542.42,24.18
543.43,23.49
544.44,23.80
545.45,24.78
546.46,25.06
547.47,24.69
548.48,24.53
549.49,24.72
550.50,25.12
551.51,25.30
552.52,24.45
553.53,23.42
554.54,23.80
555.55,24.19
556.56,26.83
557.57,29.34
558.58,30.11
559.59,29.10
560.60,27.12
561.61,25.06
562.62,24.42
563.63,26.16
564.64,28.71
565.65,29.59
566.66,28.87
567.67,28.47
568.68,29.01
569.69,29.40
570.70,28.89
571.71,28.03
572.72,27.78
573.73,28.17
574.74,28.41
575.76,28.17
576.77,27.88
577.78,27.78
578.79,27.83
579.80,27.95
580.81,28.08
581.82,28.50
582.83,28.72
583.84,28.57
584.85,28.11
585.86,27.18
586.87,26.18
587.88,25.82
588.89,25.88
589.90,25.57
590.91,24.85
591.92,24.27
592.93,24.16
593.94,24.54
594.95,25.08
595.96,25.27
596.97,25.00
597.98,24.77
598.99,24.66
600.00,24.05
601.00,22.88
602.18,22.30
603.36,23.00
604.54,23.78
605.71,23.52
606.89,23.26
608.07,21.98
609.25,21.26
610.43,21.33
611.61,21.56
612.79,21.65
613.96,21.75
615.14,21.92
616.32,21.98
617.50,21.81
618.68,21.71
619.86,22.10
621.04,22.74
622.21,23.16
623.39,23.41
624.57,23.69
625.75,24.10
626.93,24.69
628.11,25.08
629.29,24.58
630.46,23.30
631.64,22.31
632.82,22.24
634.00,22.26
635.18,22.28
636.36,21.53
637.54,20.23
638.71,19.05
639.89,18.14
641.07,17.62
642.25,17.62
643.43,17.82
644.61,17.78
645.79,17.59
646.96,17.81
648.14,18.43
649.32,18.88
650.50,19.07
651.68,19.45
652.86,20.07
654.04,19.98
655.21,18.21
656.39,15.79
657.57,14.52
658.75,14.41
659.93,14.75
661.11,15.85
662.29,17.47
663.46,17.86
664.64,18.25
665.82,17.55
667.00,16.08
668.18,15.00
669.36,15.09
670.54,15.94
671.71,16.17
672.89,15.37
674.07,14.87
675.25,15.76
676.43,17.09
677.61,17.35
678.79,16.49
679.96,15.45
681.14,15.13
682.32,15.43
683.50,15.02
684.68,13.69
685.86,12.83
687.04,12.97
688.21,13.44
689.39,13.79
690.57,13.96
691.75,14.07
692.93,14.12
694.11,14.17
695.29,14.20
696.46,14.05
697.64,13.61
698.82,13.22
700.00,13.41
701.00,14.05
702.98,14.72
704.96,15.23
706.94,15.36
708.92,15.12
710.90,15.17
712.88,15.71
714.86,15.87
716.84,15.06
718.82,14.06
720.80,13.77
722.78,14.29
724.76,15.23
726.74,15.79
728.72,15.18
730.70,13.85
732.68,13.36
734.66,14.46
736.64,15.11
738.62,15.77
740.60,15.71
742.58,14.89
744.56,14.66
746.54,14.81
748.52,14.86
750.50,15.03
752.48,15.26
754.46,14.95
756.44,13.87
758.42,12.58
760.40,12.07
762.38,13.23
764.36,15.60
766.34,17.34
768.32,17.40
770.30,16.92
772.28,17.02
774.26,17.26
776.24,16.79
778.22,15.74
780.20,15.15
782.18,15.61
784.16,16.19
786.14,16.02
788.12,15.85
790.10,15.28
792.08,15.71
794.06,16.78
796.04,17.05
798.02,15.77
800.00,13.64
801.00,11.91
803.36,11.34
805.71,11.87
808.07,12.75
810.43,13.42
812.79,13.93
815.14,14.34
817.50,14.46
819.86,14.39
822.21,14.40
824.57,14.40
826.93,14.31
829.29,14.60
831.64,14.99
834.00,14.37
836.36,12.90
838.71,11.85
841.07,11.75
843.43,11.65
845.79,11.72
848.14,11.89
850.50,12.64
852.86,13.81
855.21,14.33
857.57,13.72
859.93,12.78
862.29,12.22
864.64,11.64
867.00,10.72
869.36,9.94
871.71,9.54
874.07,9.59
876.43,10.45
878.79,11.81
881.14,12.84
883.50,13.56
885.86,14.01
888.21,13.56
890.57,12.43
892.93,11.79
895.29,11.85
897.64,11.97
900.00,11.95
901.00,11.93
904.67,11.83
908.33,11.55
912.00,10.93
915.67,10.64
919.33,11.64
923.00,13.35
926.67,13.97
930.33,12.95
934.00,11.95
937.67,12.58
941.33,14.20
945.00,15.33
948.67,15.23
952.33,13.89
956.00,12.47
959.67,12.36
963.33,12.78
967.00,12.46
970.67,12.06
974.33,12.02
978.00,11.70
981.67,11.18
985.33,11.11
989.00,11.04
992.67,11.13
996.33,11.43
1000.00,12.30
1001.00,13.47
1006.10,14.02
1011.21,13.55
1016.31,12.50
1021.41,11.71
1026.51,11.58
1031.62,11.30
1036.72,10.02
1041.82,8.72
1046.92,8.86
1052.03,9.98
1057.13,10.69
1062.23,10.92
1067.33,11.48
1072.44,12.09
1077.54,11.73
1082.64,10.59
1087.74,10.21
1092.85,11.27
1097.95,12.40
1103.05,12.35
1108.15,12.30
1113.26,11.69
1118.36,11.51
1123.46,11.41
1128.56,11.43
1133.67,12.10
1138.77,12.66
1143.87,12.03
1148.97,10.96
1154.08,10.72
1159.18,11.30
1164.28,12.05
1169.38,12.66
1174.49,12.97
1179.59,13.06
1184.69,13.22
1189.79,13.28
1194.90,12.83
1200.00,12.03
1201.00,11.23
1210.06,10.35
1219.12,9.54
1228.18,9.18
1237.24,9.24
1246.30,9.23
1255.36,9.21
1264.42,8.84
1273.48,8.90
1282.55,9.91
1291.61,10.93
1300.67,11.29
1309.73,11.36
1318.79,11.30
1327.85,11.28
1336.91,11.67
1345.97,12.11
1355.03,12.36
1364.09,12.86
1373.15,13.17
1382.21,12.17
1391.27,10.06
1400.33,8.31
1409.39,8.01
1418.45,9.00
1427.52,10.18
1436.58,10.67
1445.64,10.32
1454.70,9.73
1463.76,9.71
1472.82,10.15
1481.88,10.59
1490.94,11.59
1500.00,11.43
1501.00,10.16
1510.24,9.52
1519.48,10.32
1528.72,11.04
1537.96,10.21
1547.20,8.65
1556.44,8.02
1565.69,8.39
1574.93,8.78
1584.17,9.33
1593.41,10.88
1602.65,12.80
1611.89,13.45
1621.13,12.66
1630.37,11.70
1639.61,11.03
1648.85,9.81
1658.09,8.28
1667.33,8.09
1676.57,9.48
1685.81,10.75
1695.06,10.99
1704.30,11.23
1713.54,12.09
1722.78,13.57
1732.02,14.12
1741.26,12.98
1750.50,11.41
1759.74,10.55
1768.98,10.37
1778.22,10.85
1787.46,11.88
1796.70,12.60
1805.94,12.50
1815.19,12.02
1824.43,11.77
1833.67,11.88
1842.91,11.70
1852.15,10.92
1861.39,10.23
1870.63,10.05
1879.87,10.00
1889.11,10.01
1898.35,10.42
1907.59,11.04
1916.83,11.00
1926.07,10.63
1935.31,10.26
1944.56,10.32
1953.80,11.53
1963.04,12.06
1972.28,11.13
1981.52,10.32
1990.76,10.66
2000.00,11.35
2001.00,11.57
2018.22,11.49
2035.45,11.47
2052.67,11.46
2069.90,11.00
2087.12,10.05
2104.34,9.56
2121.57,10.10
2138.79,10.56
2156.02,10.42
2173.24,10.36
2190.47,10.11
2207.69,9.20
2224.91,8.37
2242.14,7.95
2259.36,7.81
2276.59,7.67
2293.81,7.86
2311.03,8.54
2328.26,9.06
2345.48,9.28
2362.71,9.54
2379.93,9.76
2397.16,9.84
2414.38,10.24
2431.60,11.29
2448.83,12.27
2466.05,11.99
2483.28,10.35
2500.50,8.75
2517.72,8.39
2534.95,8.99
2552.17,9.58
2569.40,9.81
2586.62,9.94
2603.84,10.05
2621.07,10.13
2638.29,10.39
2655.52,10.86
2672.74,11.20
2689.97,11.20
2707.19,11.20
2724.41,10.90
2741.64,10.64
2758.86,10.75
2776.09,11.04
2793.31,10.87
2810.53,9.76
2827.76,8.24
2844.98,7.63
2862.21,8.26
2879.43,8.99
2896.66,8.94
2913.88,8.43
2931.10,8.30
2948.33,8.94
2965.55,9.89
2982.78,10.43
3000.00,10.28
3001.00,9.74
3025.99,8.91
3050.98,8.03
3075.98,8.05
3100.97,9.56
3125.96,11.67
3150.95,12.20
3175.94,12.73
3200.93,12.39
3225.93,11.93
3250.92,12.06
3275.91,11.90
3300.90,11.15
3325.89,10.82
3350.88,11.45
3375.87,12.51
3400.87,13.54
3425.86,14.04
3450.85,13.32
3475.84,11.69
3500.83,10.04
3525.82,8.29
3550.82,6.82
3575.81,7.36
3600.80,10.07
3625.79,12.35
3650.78,12.24
3675.77,10.61
3700.77,9.49
3725.76,9.45
3750.75,9.69
3775.74,9.56
3800.73,9.44
3825.73,8.48
3850.72,7.12
3875.71,5.95
3900.70,5.28
3925.69,5.28
3950.68,6.15
3975.68,7.71
4000.67,9.35
4025.66,10.53
4050.65,10.99
4075.64,10.68
4100.63,9.84
4125.62,9.26
4150.62,9.44
4175.61,9.66
4200.60,9.01
