Size (bp),Intensity
0.58,1951.35
1.00,1563.95
2.00,1002.59
2.42,531.17
2.84,254.11
3.26,131.88
3.68,89.93
4.10,79.75
4.52,79.47
4.94,80.08
5.36,80.69
5.79,80.50
6.21,77.58
6.63,71.54
7.05,63.31
7.47,54.45
7.89,46.05
8.31,38.22
8.73,30.93
9.15,24.88
9.57,20.95
9.99,19.17
10.41,18.95
10.83,19.24
11.25,18.74
11.67,17.18
12.09,15.37
12.52,13.59
12.94,12.55
13.36,11.50
13.78,9.35
14.20,7.72
14.62,6.76
15.04,6.20
15.46,6.05
15.88,6.70
16.30,7.94
16.72,8.30
17.14,6.88
17.56,5.34
17.98,6.09
18.40,8.49
18.82,9.78
19.24,9.43
19.67,8.74
20.09,8.04
20.51,7.00
20.93,6.62
21.35,6.25
21.77,6.69
22.19,7.98
22.61,8.81
23.03,8.43
23.45,7.45
23.87,7.11
24.29,7.71
24.71,8.16
25.13,7.62
25.55,6.26
25.97,4.56
26.39,3.08
26.82,2.29
27.24,1.98
27.66,2.20
28.08,3.73
28.50,6.25
28.92,7.16
29.34,8.08
29.76,8.50
30.18,8.16
30.60,7.70
31.02,7.51
31.44,7.72
31.86,7.89
32.28,7.88
32.70,8.10
33.12,8.65
33.55,9.01
33.97,8.84
34.39,8.55
34.81,8.77
35.23,9.60
35.65,11.06
36.07,13.70
36.49,17.66
36.91,19.71
37.33,21.77
37.75,24.71
38.17,26.05
38.59,25.70
39.01,23.50
39.43,20.02
39.85,16.50
40.27,14.19
40.70,13.54
41.12,13.45
41.54,12.37
41.96,10.34
42.38,8.50
42.80,7.49
43.22,7.40
43.64,8.03
44.06,8.61
44.48,8.61
44.90,8.63
45.32,8.66
45.74,9.36
46.16,10.34
46.58,11.23
47.00,12.11
47.42,12.84
47.85,13.44
48.27,14.07
48.69,14.51
49.11,14.68
49.53,15.06
49.95,15.48
50.37,15.16
50.79,14.29
51.21,13.91
51.63,14.32
52.05,14.73
52.47,14.41
52.89,13.93
53.31,13.46
53.73,12.35
54.15,11.34
54.58,10.56
55.00,10.14
55.42,10.17
55.84,10.61
56.26,10.91
56.68,10.32
57.10,8.99
57.52,7.87
57.94,7.45
58.36,7.85
58.78,8.96
59.20,9.85
59.62,9.60
60.04,8.59
60.46,7.47
60.88,6.75
61.30,6.03
61.73,4.27
62.15,3.20
62.57,3.48
62.99,4.61
63.41,5.97
63.83,7.02
64.25,7.12
64.67,6.70
65.09,6.90
65.51,7.89
65.93,8.86
66.35,8.96
66.77,7.93
67.19,6.57
67.61,5.81
68.03,5.47
68.45,5.05
68.88,5.02
69.30,4.99
69.72,5.77
70.14,6.48
70.56,5.98
70.98,4.90
71.40,4.58
71.82,5.22
72.24,6.27
72.66,7.02
73.08,6.81
73.50,5.45
73.92,3.45
74.34,1.88
74.76,1.68
75.18,2.35
75.61,2.61
76.03,2.34
76.45,1.91
76.87,0.94
77.29,0.40
77.71,-0.15
78.13,-0.24
78.55,0.50
78.97,1.20
79.39,2.02
79.81,3.14
80.23,3.77
80.65,3.51
81.07,3.50
81.49,4.50
81.91,5.52
82.33,5.82
82.76,5.83
83.18,5.67
83.60,5.45
84.02,6.17
84.44,8.20
84.86,10.52
85.28,11.25
85.70,11.98
86.12,12.42
86.54,12.31
86.96,11.97
87.38,11.42
87.80,10.85
88.22,10.73
88.64,11.18
89.06,11.34
89.48,10.39
89.91,8.94
90.33,7.96
90.75,7.62
91.17,8.04
91.59,9.15
92.01,10.42
92.43,11.94
92.85,13.74
93.27,14.28
93.69,14.82
94.11,14.62
94.53,13.67
94.95,12.67
95.37,12.30
95.79,12.99
96.21,14.46
96.64,15.98
97.06,17.15
97.48,18.47
97.90,20.42
98.32,22.44
98.74,23.85
99.16,24.89
99.58,26.14
100.00,28.34
101.00,31.72
101.52,34.77
102.04,35.12
102.56,35.48
103.08,33.76
103.61,31.54
104.13,30.70
104.65,31.41
105.17,32.52
105.69,33.41
106.21,34.49
106.73,36.15
107.25,38.44
107.77,41.47
108.29,45.88
108.82,52.71
109.34,61.92
109.86,71.08
110.38,76.30
110.90,74.11
111.42,63.61
111.94,55.80
112.46,47.98
112.98,32.59
113.51,21.28
114.03,14.91
114.55,12.19
115.07,11.13
115.59,10.55
116.11,10.29
116.63,9.97
117.15,8.94
117.67,7.38
118.19,5.86
118.72,4.40
119.24,3.23
119.76,3.36
120.28,4.92
120.80,6.61
121.32,7.57
121.84,7.83
122.36,8.09
122.88,8.14
123.41,7.45
123.93,6.61
124.45,6.22
124.97,6.27
125.49,6.74
126.01,7.50
126.53,7.90
127.05,7.50
127.57,6.49
128.09,5.49
128.62,5.16
129.14,5.78
129.66,6.73
130.18,6.81
130.70,5.41
131.22,3.37
131.74,2.75
132.26,2.13
132.78,1.92
133.31,1.42
133.83,0.20
134.35,-0.43
134.87,0.32
135.39,2.02
135.91,3.98
136.43,5.09
136.95,4.49
137.47,2.88
137.99,1.65
138.52,1.37
139.04,2.04
139.56,3.12
140.08,3.61
140.60,3.14
141.12,2.13
141.64,1.53
142.16,0.93
142.68,-0.25
143.21,-1.13
143.73,-1.22
144.25,-0.25
144.77,1.40
145.29,2.88
145.81,3.40
146.33,2.84
146.85,2.28
147.37,2.50
147.89,2.93
148.42,3.07
148.94,3.01
149.46,2.48
149.98,1.47
150.50,0.86
151.02,1.35
151.54,2.48
152.06,2.96
152.58,3.43
153.11,3.91
153.63,3.63
154.15,2.47
154.67,1.44
155.19,1.70
155.71,2.75
156.23,3.23
156.75,2.78
157.27,2.21
157.79,2.19
158.32,2.26
158.84,1.67
159.36,0.89
159.88,0.86
160.40,1.55
160.92,2.29
161.44,2.71
161.96,2.84
162.48,2.97
163.01,3.31
163.53,3.75
164.05,4.16
164.57,4.34
165.09,3.76
165.61,2.32
166.13,1.03
166.65,0.94
167.17,1.96
167.69,3.32
168.22,4.57
168.74,5.47
169.26,5.66
169.78,5.17
170.30,4.43
170.82,3.63
171.34,3.01
171.86,2.93
172.38,2.84
172.91,2.83
173.43,2.55
173.95,2.36
174.47,2.55
174.99,2.68
175.51,2.72
176.03,3.09
176.55,3.64
177.07,3.82
177.59,3.52
178.12,3.39
178.64,4.18
179.16,5.53
179.68,6.14
180.20,5.91
180.72,5.95
181.24,6.60
181.76,6.82
182.28,7.03
182.81,6.44
183.33,5.10
183.85,4.02
184.37,3.93
184.89,4.54
185.41,5.06
185.93,5.42
186.45,6.33
186.97,7.63
187.49,7.98
188.02,6.99
188.54,6.17
189.06,6.72
189.58,8.13
190.10,9.05
190.62,8.68
191.14,7.40
191.66,6.93
192.18,6.45
192.71,6.81
193.23,8.33
193.75,9.83
194.27,10.49
194.79,10.60
195.31,10.76
195.83,11.31
196.35,12.39
196.87,13.83
197.39,15.32
197.92,16.43
198.44,16.92
198.96,17.28
199.48,17.97
200.00,18.52
201.00,18.46
201.59,18.23
202.17,18.36
202.76,18.48
203.34,19.11
203.93,19.53
204.51,19.63
205.10,19.70
205.69,19.89
206.27,20.37
206.86,21.44
207.44,22.75
208.03,23.51
208.62,23.63
209.20,23.78
209.79,24.28
210.37,25.27
210.96,26.74
211.54,28.08
212.13,28.68
212.72,28.71
213.30,28.66
213.89,28.61
214.47,28.64
215.06,29.19
215.64,29.94
216.23,29.92
216.82,29.14
217.40,28.59
217.99,28.59
218.57,28.82
219.16,29.19
219.75,29.81
220.33,30.48
220.92,31.12
221.50,31.89
222.09,32.41
222.67,31.93
223.26,30.93
223.85,30.87
224.43,31.50
225.02,32.12
225.60,33.75
226.19,35.05
226.78,36.41
227.36,38.46
227.95,40.93
228.53,43.06
229.12,44.61
229.70,46.02
230.29,47.58
230.88,48.88
231.46,49.48
232.05,49.92
232.63,51.38
233.22,53.97
233.80,56.30
234.39,57.63
234.98,59.15
235.56,60.49
236.15,61.83
236.73,65.05
237.32,68.25
237.91,71.84
238.49,76.06
239.08,80.62
239.66,85.23
240.25,89.77
240.83,93.88
241.42,96.62
242.01,97.24
242.59,96.93
243.18,98.20
243.76,102.10
244.35,107.38
244.93,112.49
245.52,116.81
246.11,120.43
246.69,124.34
247.28,127.37
247.86,130.39
248.45,139.75
249.04,151.66
249.62,164.96
250.21,179.45
250.79,195.19
251.38,212.88
251.96,234.04
252.55,259.20
253.14,288.14
253.72,321.90
254.31,362.00
254.89,407.63
255.48,455.08
256.07,500.29
256.65,542.53
257.24,586.28
257.82,639.37
258.41,674.61
258.99,709.85
259.58,803.29
260.17,918.15
260.75,1041.89
261.34,1155.70
261.92,1245.23
262.51,1307.28
263.09,1349.88
263.68,1388.60
264.27,1441.18
264.85,1522.76
265.44,1643.58
266.02,1808.66
266.61,2020.07
267.20,2281.88
267.78,2601.73
268.37,2982.45
268.95,3410.39
269.54,3632.95
270.12,3855.52
270.71,4288.80
271.30,4702.21
271.88,5110.81
272.47,5535.90
273.05,5988.20
273.64,6465.21
274.22,6960.99
274.81,7489.02
275.40,8140.90
275.98,9176.64
276.57,11018.91
277.15,13981.46
277.74,17815.80
278.33,21487.95
278.91,23543.15
279.50,22937.47
280.08,19722.25
280.67,17358.68
281.25,14995.11
281.84,10186.04
282.43,6316.40
283.01,3721.26
283.60,2219.06
284.18,1438.38
284.77,1054.60
285.36,866.47
285.94,772.67
286.53,725.50
287.11,699.72
287.70,680.36
288.28,660.32
288.87,638.43
289.46,615.57
290.04,591.03
290.63,562.11
291.21,527.22
291.80,507.61
292.38,488.00
292.97,448.16
293.56,411.71
294.14,381.79
294.73,359.37
295.31,342.95
295.90,330.04
296.49,318.83
297.07,308.32
297.66,297.65
298.24,286.72
298.83,276.33
299.41,267.22
300.00,259.41
301.00,252.93
301.70,248.53
302.39,246.51
303.09,245.88
303.79,245.77
304.49,245.66
305.18,245.94
305.88,246.85
306.58,247.92
307.27,248.83
307.97,249.67
308.67,249.96
309.37,248.35
310.06,243.88
310.76,236.68
311.46,227.69
312.15,218.72
312.85,212.68
313.55,212.04
314.25,217.09
314.94,226.18
315.64,236.37
316.34,242.83
317.04,241.71
317.73,240.58
318.43,229.10
319.13,213.37
319.82,200.20
320.52,194.87
321.22,198.35
321.92,205.40
322.61,207.87
323.31,200.90
324.01,185.75
324.70,167.31
325.40,149.81
326.10,134.54
326.80,120.54
327.49,106.81
328.19,93.42
328.89,80.72
329.58,68.78
330.28,63.54
330.98,58.30
331.68,50.29
332.37,44.73
333.07,40.84
333.77,38.19
334.46,36.83
335.16,36.74
335.86,36.96
336.56,35.93
337.25,33.34
337.95,30.61
338.65,28.88
339.35,27.94
340.04,27.46
340.74,27.51
341.44,27.81
342.13,27.66
342.83,26.78
343.53,26.26
344.23,25.74
344.92,25.16
345.62,24.89
346.32,24.43
347.01,24.13
347.71,24.38
348.41,24.72
349.11,24.51
349.80,23.67
350.50,22.59
351.20,21.78
351.89,21.50
352.59,21.63
353.29,21.65
353.99,21.04
354.68,20.15
355.38,19.95
356.08,20.58
356.77,21.47
357.47,22.19
358.17,22.91
358.87,25.29
359.56,27.28
360.26,27.20
360.96,25.53
361.65,24.26
362.35,24.46
363.05,25.26
363.75,24.84
364.44,22.67
365.14,20.46
365.84,20.15
366.54,21.48
367.23,22.82
367.93,23.39
368.63,23.27
369.32,22.83
370.02,22.57
370.72,22.55
371.42,22.54
372.11,22.23
372.81,21.37
373.51,20.24
374.20,19.10
374.90,18.43
375.60,18.43
376.30,18.26
376.99,17.37
377.69,16.17
378.39,14.88
379.08,13.90
379.78,13.88
380.48,14.18
381.18,13.61
381.87,12.41
382.57,11.58
383.27,11.62
383.96,12.02
384.66,12.42
385.36,13.40
386.06,13.97
386.75,14.00
387.45,13.94
388.15,14.24
388.85,14.48
389.54,13.89
390.24,12.58
390.94,11.16
391.63,10.38
392.33,11.04
393.03,12.65
393.73,13.57
394.42,13.23
395.12,12.53
395.82,12.24
396.51,12.10
397.21,11.89
397.91,11.68
398.61,11.40
399.30,11.56
400.00,11.39
401.00,10.68
401.72,10.13
402.45,9.92
403.17,10.01
403.89,10.86
404.61,12.44
405.34,14.04
406.06,14.91
406.78,15.06
407.50,15.12
408.23,15.05
408.95,14.02
409.67,12.74
410.39,13.16
411.12,14.17
411.84,15.18
412.56,16.53
413.28,16.26
414.01,15.63
414.73,15.61
415.45,15.87
416.18,15.62
416.90,14.64
417.62,13.34
418.34,12.55
419.07,13.04
419.79,14.62
420.51,15.73
421.23,15.20
421.96,13.92
422.68,13.46
423.40,14.11
424.12,15.18
424.85,15.46
425.57,15.74
426.29,15.25
427.01,13.81
427.74,12.08
428.46,10.79
429.18,10.34
429.91,10.51
430.63,10.89
431.35,11.44
432.07,12.05
432.80,12.11
433.52,11.38
434.24,10.60
434.96,10.61
435.69,11.06
436.41,10.97
437.13,10.11
437.85,9.27
438.58,9.31
439.30,9.34
440.02,10.25
440.74,10.81
441.47,10.21
442.19,8.83
442.91,7.41
443.64,6.42
444.36,6.09
445.08,6.25
445.80,6.57
446.53,7.24
447.25,8.66
447.97,10.21
448.69,10.54
449.42,9.55
450.14,8.55
450.86,8.47
451.58,9.12
452.31,9.56
453.03,10.00
453.75,11.08
454.47,12.55
455.20,14.05
455.92,14.83
456.64,14.82
457.36,14.60
458.09,14.39
458.81,14.08
459.53,14.03
460.26,14.40
460.98,14.40
461.70,13.50
462.42,12.44
463.15,12.39
463.87,13.27
464.59,13.62
465.31,12.68
466.04,11.67
466.76,11.86
467.48,12.06
468.20,13.69
468.93,15.13
469.65,15.40
470.37,14.73
471.09,13.98
471.82,13.90
472.54,14.75
473.26,16.11
473.99,17.32
474.71,17.63
475.43,16.37
476.15,14.00
476.88,12.20
477.60,11.88
478.32,12.33
479.04,12.46
479.77,11.81
480.49,11.43
481.21,11.06
481.93,11.17
482.66,11.99
483.38,12.76
484.10,12.98
484.82,12.07
485.55,10.15
486.27,8.75
486.99,8.66
487.72,8.60
488.44,7.73
489.16,7.00
489.88,6.98
490.61,7.08
491.33,6.94
492.05,6.77
492.77,6.93
493.50,7.81
494.22,8.43
494.94,9.05
495.66,9.61
496.39,9.38
497.11,9.29
497.83,9.60
498.55,9.70
499.28,9.44
500.00,9.02
501.00,8.43
502.01,8.18
503.02,8.90
504.03,9.93
505.04,10.28
506.05,10.22
507.06,10.38
508.07,10.43
509.08,9.95
510.09,9.34
511.10,9.25
512.11,9.16
513.12,9.47
514.13,10.24
515.14,11.27
516.15,11.95
517.16,11.70
518.17,10.72
519.18,9.71
520.19,9.00
521.20,8.44
522.21,8.17
523.22,8.83
524.23,10.50
525.24,12.16
526.26,12.85
527.27,12.60
528.28,11.65
529.29,10.04
530.30,9.27
531.31,8.50
532.32,8.03
533.33,8.52
534.34,8.99
535.35,8.95
536.36,8.50
537.37,7.95
538.38,7.77
539.39,8.13
540.40,8.60
541.41,8.87
542.42,9.31
543.43,10.22
544.44,11.14
545.45,11.38
546.46,11.09
547.47,11.24
548.48,11.89
549.49,11.83
550.50,11.78
551.51,10.53
552.52,9.11
553.53,8.49
554.54,9.10
555.55,10.94
556.56,13.58
557.57,16.03
558.58,16.90
559.59,15.96
560.60,14.60
561.61,13.81
562.62,13.50
563.63,13.46
564.64,13.49
565.65,13.48
566.66,13.71
567.67,14.51
568.68,14.98
569.69,15.45
570.70,15.88
571.71,15.97
572.72,16.31
573.73,16.68
574.74,16.64
575.76,16.64
576.77,17.68
577.78,19.49
578.79,20.48
579.80,19.81
580.81,18.56
581.82,18.02
582.83,18.05
583.84,17.94
584.85,17.40
585.86,16.29
586.87,14.72
587.88,14.09
588.89,13.45
589.90,13.39
590.91,14.21
591.92,14.56
592.93,14.17
593.94,14.34
594.95,15.70
595.96,17.44
596.97,19.02
597.98,20.60
598.99,21.79
600.00,21.84
601.00,21.08
602.18,20.47
603.36,20.04
604.54,19.34
605.71,18.48
606.89,17.64
608.07,17.23
609.25,16.83
610.43,16.14
611.61,15.82
612.79,16.18
613.96,17.06
615.14,17.90
616.32,18.81
617.50,19.93
618.68,20.35
619.86,19.51
621.04,18.40
622.21,17.94
623.39,17.64
624.57,17.24
625.75,17.41
626.93,18.23
628.11,18.86
629.29,19.23
630.46,20.13
631.64,20.87
632.82,21.61
634.00,22.96
635.18,23.93
636.36,24.95
637.54,25.73
638.71,25.27
639.89,23.57
641.07,22.16
642.25,22.38
643.43,23.82
644.61,25.12
645.79,25.86
646.96,26.41
648.14,26.77
649.32,27.21
650.50,28.43
651.68,30.00
652.86,30.64
654.04,30.43
655.21,30.22
656.39,29.79
657.57,30.06
658.75,30.62
659.93,30.89
661.11,31.19
662.29,32.04
663.46,33.32
664.64,34.73
665.82,35.73
667.00,35.72
668.18,35.17
669.36,35.50
670.54,36.96
671.71,37.96
672.89,37.11
674.07,35.05
675.25,33.86
676.43,34.18
677.61,34.50
678.79,35.77
679.96,36.26
681.14,35.98
682.32,35.69
683.50,35.53
684.68,34.91
685.86,33.62
687.04,32.45
688.21,32.17
689.39,32.62
690.57,33.14
691.75,33.29
692.93,32.88
694.11,31.71
695.29,29.93
696.46,28.48
697.64,28.11
698.82,28.32
700.00,28.52
701.00,29.18
702.98,30.01
704.96,30.76
706.94,30.89
708.92,30.14
710.90,28.49
712.88,26.20
714.86,24.29
716.84,23.79
718.82,24.27
720.80,24.33
722.78,23.72
724.76,23.20
726.74,22.70
728.72,21.84
730.70,21.38
732.68,22.02
734.66,22.37
736.64,22.72
738.62,22.21
740.60,21.31
742.58,21.56
744.56,22.42
746.54,22.17
748.52,20.88
750.50,20.16
752.48,20.70
754.46,21.79
756.44,22.67
758.42,22.85
760.40,22.15
762.38,20.90
764.36,20.01
766.34,20.58
768.32,22.41
770.30,23.77
772.28,23.76
774.26,23.76
776.24,23.16
778.22,22.60
780.20,21.97
782.18,21.34
784.16,20.93
786.14,20.79
788.12,21.04
790.10,21.45
792.08,21.50
794.06,21.03
796.04,20.16
798.02,18.91
800.00,17.76
801.00,17.51
803.36,17.90
805.71,17.91
808.07,17.57
810.43,17.44
812.79,17.32
815.14,16.63
817.50,15.29
819.86,14.01
822.21,13.24
824.57,13.05
826.93,13.62
829.29,14.71
831.64,15.61
834.00,15.72
836.36,15.20
838.71,14.50
841.07,14.07
843.43,14.51
845.79,15.50
848.14,15.70
850.50,14.80
852.86,13.60
855.21,13.11
857.57,12.62
859.93,11.93
862.29,11.51
864.64,11.34
867.00,11.45
869.36,11.60
871.71,11.24
874.07,10.17
876.43,9.14
878.79,9.44
881.14,11.13
883.50,12.86
885.86,13.76
888.21,13.99
890.57,13.72
892.93,12.80
895.29,11.50
897.64,10.21
900.00,9.69
901.00,9.18
904.67,8.99
908.33,9.97
912.00,11.27
915.67,11.63
919.33,10.80
923.00,9.59
926.67,8.79
930.33,9.14
934.00,10.78
937.67,12.41
941.33,12.96
945.00,12.84
948.67,11.90
952.33,9.59
956.00,7.02
959.67,5.61
963.33,5.13
967.00,4.84
970.67,4.78
974.33,4.73
978.00,4.93
981.67,5.53
985.33,6.67
989.00,7.88
992.67,8.23
996.33,7.78
1000.00,7.43
1001.00,7.47
1006.10,7.47
1011.21,7.16
1016.31,6.37
1021.41,5.34
1026.51,5.01
1031.62,5.69
1036.72,6.39
1041.82,6.38
1046.92,5.96
1052.03,5.83
1057.13,5.70
1062.23,5.54
1067.33,5.20
1072.44,5.16
1077.54,6.10
1082.64,7.32
1087.74,7.51
1092.85,6.78
1097.95,6.08
1103.05,5.60
1108.15,5.24
1113.26,5.40
1118.36,6.23
1123.46,7.00
1128.56,6.75
1133.67,5.50
1138.77,4.36
1143.87,4.54
1148.97,5.41
1154.08,6.28
1159.18,8.54
1164.28,9.91
1169.38,9.89
1174.49,9.33
1179.59,9.13
1184.69,9.09
1189.79,8.64
1194.90,8.03
1200.00,7.91
1201.00,8.58
1210.06,9.70
1219.12,10.28
1228.18,9.90
1237.24,9.16
1246.30,8.75
1255.36,9.15
1264.42,9.95
1273.48,9.94
1282.55,9.93
1291.61,9.00
1300.67,8.31
1309.73,8.02
1318.79,7.30
1327.85,6.51
1336.91,6.79
1345.97,8.17
1355.03,9.44
1364.09,9.61
1373.15,8.90
1382.21,8.31
1391.27,8.11
1400.33,7.42
1409.39,6.13
1418.45,5.49
1427.52,6.19
1436.58,7.62
1445.64,8.34
1454.70,9.06
1463.76,9.95
1472.82,9.70
1481.88,8.66
1490.94,8.12
1500.00,8.48
1501.00,8.61
1510.24,7.84
1519.48,7.19
1528.72,7.71
1537.96,9.43
1547.20,11.96
1556.44,14.82
1565.69,17.23
1574.93,18.39
1584.17,18.44
1593.41,18.48
1602.65,18.79
1611.89,18.71
1621.13,18.64
1630.37,18.19
1639.61,18.31
1648.85,18.89
1658.09,19.30
1667.33,19.31
1676.57,18.82
1685.81,17.97
1695.06,17.19
1704.30,16.86
1713.54,16.85
1722.78,16.93
1732.02,17.23
1741.26,17.75
1750.50,18.28
1759.74,18.57
1768.98,17.91
1778.22,15.68
1787.46,14.04
1796.70,12.40
1805.94,9.61
1815.19,8.24
1824.43,7.85
1833.67,7.69
1842.91,7.65
1852.15,8.01
1861.39,8.98
1870.63,10.11
1879.87,10.43
1889.11,9.54
1898.35,8.10
1907.59,7.17
1916.83,7.28
1926.07,8.13
1935.31,9.08
1944.56,9.73
1953.80,9.78
1963.04,9.58
1972.28,9.39
1981.52,9.28
1990.76,9.85
2000.00,10.83
2001.00,12.05
2018.22,13.14
2035.45,13.03
2052.67,11.47
2069.90,10.00
2087.12,9.86
2104.34,10.16
2121.57,9.76
2138.79,9.23
2156.02,9.45
2173.24,10.07
2190.47,10.58
2207.69,11.13
2224.91,11.54
2242.14,11.33
2259.36,10.90
2276.59,10.47
2293.81,9.47
2311.03,8.93
2328.26,9.10
2345.48,9.85
2362.71,10.78
2379.93,11.17
2397.16,10.71
2414.38,10.27
2431.60,10.62
2448.83,10.87
2466.05,10.40
2483.28,10.23
2500.50,10.96
2517.72,11.88
2534.95,12.46
2552.17,12.64
2569.40,12.44
2586.62,12.17
2603.84,11.91
2621.07,11.00
2638.29,9.71
2655.52,8.54
2672.74,8.59
2689.97,10.09
2707.19,11.48
2724.41,11.46
2741.64,10.58
2758.86,9.66
2776.09,8.65
2793.31,7.79
2810.53,7.64
2827.76,8.16
2844.98,8.90
2862.21,9.23
2879.43,8.57
2896.66,7.20
2913.88,6.80
2931.10,6.39
2948.33,7.00
2965.55,8.24
2982.78,8.84
3000.00,8.78
3001.00,8.98
3025.99,10.22
3050.98,12.38
3075.98,14.30
3100.97,14.93
3125.96,14.40
3150.95,13.55
3175.94,12.81
3200.93,11.99
3225.93,10.91
3250.92,10.20
3275.91,10.51
3300.90,11.55
3325.89,11.89
3350.88,12.24
3375.87,11.94
3400.87,11.33
3425.86,11.52
3450.85,12.28
3475.84,12.67
3500.83,12.95
3525.82,13.72
3550.82,14.33
3575.81,13.81
3600.80,12.34
3625.79,11.03
3650.78,10.47
3675.77,10.32
3700.77,10.18
3725.76,10.15
3750.75,10.22
3775.74,9.98
3800.73,9.65
3825.73,9.31
3850.72,8.66
3875.71,8.68
3900.70,9.38
3925.69,9.82
3950.68,9.37
3975.68,8.94
4000.67,9.52
4025.66,10.41
4050.65,10.57
4075.64,10.11
4100.63,9.23
4125.62,8.13
4150.62,7.58
4175.61,8.02
4200.60,8.90
4225.59,9.65
4250.58,10.36
4275.58,10.74
4300.57,11.13
4325.56,11.40
4350.55,10.74
4375.54,9.81
4400.53,9.39
4425.52,9.42
4450.52,9.60
4475.51,10.00
4500.50,10.57
4525.49,10.63
4550.48,9.72
4575.48,8.39
4600.47,8.10
4625.46,9.36
4650.45,10.63
4675.44,10.40
4700.43,9.43
4725.42,9.12
4750.42,9.39
4775.41,9.66
4800.40,10.69
4825.39,11.84
4850.38,12.48
4875.37,12.40
4900.37,12.09
