Size (bp),Intensity
0.58,2155.52
1.00,1959.50
2.00,1401.04
2.42,801.21
2.84,387.55
3.26,286.37
3.68,185.18
4.10,111.98
4.52,92.77
4.94,91.23
5.36,94.95
5.79,99.93
6.21,103.28
6.63,101.96
7.05,94.81
7.47,83.45
7.89,70.94
8.31,59.47
8.73,54.44
9.15,49.41
9.57,40.28
9.99,32.52
10.41,27.16
10.83,24.28
11.25,23.02
11.67,22.32
12.09,21.08
12.52,18.82
12.94,16.23
13.36,14.16
13.78,13.41
14.20,12.67
14.62,11.57
15.04,10.89
15.46,10.34
15.88,9.75
16.30,9.51
16.72,10.05
17.14,10.89
17.56,11.44
17.98,12.11
18.40,13.24
18.82,13.86
19.24,13.66
19.67,13.46
20.09,12.88
20.51,12.58
20.93,11.85
21.35,10.40
21.77,9.09
22.19,8.29
22.61,7.26
23.03,5.73
23.45,4.39
23.87,3.46
24.29,2.91
24.71,2.36
25.13,0.98
25.55,0.37
25.97,1.20
26.39,2.69
26.82,3.48
27.24,3.36
27.66,3.49
28.08,4.42
28.50,5.02
28.92,4.47
29.34,3.79
29.76,4.03
30.18,4.27
30.60,5.88
31.02,7.23
31.44,7.02
31.86,5.49
32.28,3.99
32.70,3.54
33.12,4.09
33.55,5.11
33.97,6.17
34.39,6.87
34.81,6.94
35.23,7.01
35.65,6.92
36.07,7.13
36.49,8.39
36.91,12.49
37.33,21.38
37.75,34.39
38.17,47.49
38.59,56.80
39.01,61.58
39.43,62.27
39.85,58.26
40.27,54.09
40.70,49.91
41.12,40.57
41.54,34.15
41.96,31.57
42.38,30.75
42.80,30.12
43.22,30.40
43.64,32.50
44.06,36.52
44.48,42.80
44.90,51.36
45.32,60.02
45.74,62.64
46.16,65.27
46.58,65.82
47.00,63.21
47.42,59.02
47.85,53.58
48.27,47.04
48.69,39.79
49.11,32.16
49.53,25.20
49.95,20.68
50.37,18.54
50.79,17.53
51.21,16.53
51.63,14.17
52.05,13.45
52.47,14.75
52.89,15.84
53.31,15.20
53.73,13.45
54.15,11.72
54.58,10.50
55.00,10.36
55.42,11.83
55.84,14.07
56.26,14.94
56.68,15.82
57.10,17.51
57.52,19.76
57.94,21.26
58.36,20.24
58.78,16.67
59.20,12.24
59.62,9.00
60.04,7.36
60.46,6.36
60.88,5.56
61.30,5.38
61.73,5.20
62.15,5.17
62.57,5.16
62.99,5.03
63.41,4.86
63.83,4.75
64.25,4.55
64.67,4.05
65.09,3.61
65.51,3.77
65.93,4.37
66.35,4.80
66.77,4.73
67.19,4.65
67.61,3.81
68.03,2.88
68.45,2.79
68.88,3.54
69.30,4.25
69.72,4.23
70.14,3.92
70.56,4.01
70.98,3.83
71.40,2.44
71.82,1.62
72.24,0.80
72.66,0.31
73.08,0.99
73.50,2.04
73.92,2.77
74.34,3.15
74.76,3.76
75.18,4.65
75.61,4.90
76.03,3.66
76.45,1.20
76.87,-1.01
77.29,-1.24
77.71,-1.47
78.13,-0.32
78.55,1.12
78.97,1.73
79.39,1.58
79.81,1.73
80.23,2.69
80.65,3.52
81.07,3.69
81.49,3.72
81.91,3.63
82.33,3.40
82.76,3.18
83.18,2.85
83.60,3.01
84.02,3.29
84.44,3.05
84.86,1.85
85.28,-0.04
85.70,-1.58
86.12,-2.00
86.54,-1.47
86.96,-0.63
87.38,0.09
87.80,0.34
88.22,0.59
88.64,1.11
89.06,1.78
89.48,2.09
89.91,1.72
90.33,1.33
90.75,1.25
91.17,0.93
91.59,0.38
92.01,0.24
92.43,0.41
92.85,0.31
93.27,0.21
93.69,-0.59
94.11,-1.41
94.53,-1.69
94.95,-1.51
95.37,-0.94
95.79,0.34
96.21,1.93
96.64,2.51
97.06,1.81
97.48,1.05
97.90,0.92
98.32,0.93
98.74,0.94
99.16,0.86
99.58,1.14
100.00,1.82
101.00,2.64
101.52,3.80
102.04,4.88
102.56,4.68
103.08,3.12
103.61,1.81
104.13,1.99
104.65,2.56
105.17,3.13
105.69,3.93
106.21,3.90
106.73,3.40
107.25,3.00
107.77,3.01
108.29,3.12
108.82,2.77
109.34,2.05
109.86,1.55
110.38,1.53
110.90,1.77
111.42,1.82
111.94,1.88
112.46,1.71
112.98,1.32
113.51,0.96
114.03,0.90
114.55,1.13
115.07,1.73
115.59,2.82
116.11,4.07
116.63,4.89
117.15,4.84
117.67,4.40
118.19,3.95
118.72,3.03
119.24,2.75
119.76,2.64
120.28,2.20
120.80,1.72
121.32,1.21
121.84,0.47
122.36,0.21
122.88,0.93
123.41,2.01
123.93,2.93
124.45,3.23
124.97,3.52
125.49,3.27
126.01,2.02
126.53,0.45
127.05,-0.46
127.57,-0.02
128.09,1.28
128.62,2.28
129.14,2.79
129.66,3.39
130.18,3.95
130.70,3.95
131.22,3.95
131.74,3.39
132.26,2.74
132.78,2.67
133.31,3.49
133.83,4.18
134.35,3.74
134.87,2.82
135.39,2.40
135.91,2.38
136.43,2.35
136.95,2.24
137.47,2.24
137.99,2.23
138.52,2.59
139.04,3.21
139.56,3.31
140.08,2.43
140.60,1.39
141.12,1.11
141.64,1.19
142.16,0.72
142.68,0.22
143.21,0.58
143.73,0.81
144.25,1.03
144.77,0.77
145.29,0.44
145.81,0.55
146.33,0.79
146.85,0.88
147.37,0.96
147.89,1.41
148.42,2.15
148.94,2.48
149.46,2.09
149.98,1.37
150.50,1.20
151.02,1.03
151.54,1.29
152.06,1.67
152.58,2.01
153.11,2.64
153.63,3.06
154.15,2.47
154.67,1.28
155.19,0.86
155.71,1.86
156.23,3.52
156.75,4.43
157.27,4.21
157.79,3.99
158.32,3.05
158.84,2.77
159.36,3.06
159.88,2.73
160.40,1.35
160.92,0.09
161.44,0.15
161.96,1.20
162.48,2.22
163.01,3.09
163.53,3.59
164.05,4.09
164.57,4.86
165.09,4.88
165.61,4.21
166.13,3.58
166.65,3.72
167.17,4.24
167.69,4.04
168.22,3.02
168.74,2.21
169.26,2.34
169.78,3.18
170.30,3.49
170.82,3.79
171.34,3.42
171.86,2.40
172.38,1.46
172.91,0.84
173.43,0.65
173.95,0.98
174.47,1.81
174.99,3.25
175.51,4.80
176.03,5.27
176.55,4.79
177.07,4.31
177.59,2.91
178.12,2.43
178.64,3.77
179.16,6.44
179.68,8.62
180.20,8.91
180.72,7.55
181.24,5.62
181.76,4.23
182.28,4.07
182.81,4.71
183.33,4.93
183.85,5.14
184.37,5.06
184.89,4.98
185.41,5.36
185.93,5.84
186.45,5.59
186.97,4.66
187.49,4.11
188.02,4.60
188.54,5.50
189.06,5.74
189.58,5.45
190.10,5.16
190.62,4.79
191.14,5.24
191.66,5.95
192.18,6.32
192.71,6.43
193.23,5.93
193.75,4.21
194.27,1.92
194.79,0.56
195.31,0.76
195.83,1.76
196.35,2.03
196.87,2.30
197.39,1.83
197.92,0.66
198.44,-0.69
198.96,-1.31
199.48,-0.73
200.00,0.24
201.00,0.82
201.59,1.08
202.17,1.07
202.76,0.96
203.34,1.26
203.93,1.55
204.51,2.79
205.10,3.32
205.69,2.78
206.27,2.20
206.86,1.92
207.44,1.37
208.03,0.51
208.62,-0.20
209.20,-0.39
209.79,-0.02
210.37,0.58
210.96,0.90
211.54,1.22
212.13,1.88
212.72,2.16
213.30,1.65
213.89,0.55
214.47,-0.26
215.06,-0.06
215.64,1.18
216.23,2.87
216.82,3.99
217.40,3.73
217.99,3.24
218.57,2.76
219.16,2.76
219.75,3.81
220.33,4.25
220.92,3.56
221.50,2.87
222.09,2.58
222.67,2.25
223.26,2.06
223.85,1.99
224.43,1.41
225.02,0.55
225.60,0.46
226.19,0.36
226.78,1.18
227.36,2.52
227.95,3.79
228.53,4.49
229.12,4.40
229.70,3.71
230.29,2.84
230.88,2.14
231.46,1.87
232.05,2.00
232.63,2.01
233.22,2.03
233.80,1.48
234.39,0.80
234.98,0.98
235.56,2.11
236.15,3.61
236.73,5.17
237.32,6.22
237.91,6.43
238.49,6.15
239.08,5.35
239.66,3.85
240.25,3.04
240.83,2.23
241.42,1.43
242.01,1.98
242.59,3.37
243.18,4.64
243.76,5.48
244.35,5.76
244.93,4.90
245.52,3.19
246.11,2.03
246.69,2.19
247.28,2.69
247.86,3.19
248.45,4.63
249.04,6.52
249.62,8.39
250.21,9.44
250.79,9.72
251.38,9.90
251.96,10.12
252.55,10.43
253.14,10.95
253.72,11.20
254.31,10.85
254.89,10.68
255.48,10.51
256.07,10.75
256.65,11.25
257.24,11.34
257.82,10.94
258.41,10.69
258.99,11.16
259.58,11.94
260.17,12.33
260.75,12.64
261.34,13.80
261.92,15.82
262.51,16.71
263.09,17.60
263.68,18.51
264.27,19.21
264.85,20.54
265.44,22.82
266.02,26.02
266.61,28.99
267.20,30.24
267.78,30.45
268.37,31.92
268.95,35.51
269.54,37.56
270.12,39.61
270.71,42.30
271.30,43.53
271.88,44.25
272.47,44.89
273.05,45.86
273.64,47.64
274.22,49.91
274.81,51.93
275.40,53.33
275.98,53.88
276.57,53.74
277.15,54.09
277.74,54.43
278.33,58.49
278.91,67.93
279.50,82.51
280.08,99.09
280.67,113.10
281.25,121.98
281.84,127.14
282.43,132.04
283.01,138.98
283.60,148.12
284.18,153.17
284.77,158.22
285.36,167.11
285.94,173.67
286.53,181.47
287.11,199.05
287.70,235.27
288.28,295.40
288.87,381.60
289.46,494.73
290.04,632.65
290.63,785.81
291.21,934.40
291.80,992.72
292.38,1051.04
292.97,1111.34
293.56,1108.28
294.14,1058.06
294.73,990.67
295.31,932.59
295.90,894.78
296.49,871.92
297.07,850.28
297.66,819.33
298.24,780.75
298.83,764.46
299.41,748.18
300.00,739.46
301.00,769.58
301.70,845.46
302.39,960.29
303.09,1095.62
303.79,1239.07
304.49,1403.62
305.18,1628.62
305.88,1968.14
306.58,2479.46
307.27,3216.18
307.97,3757.61
308.67,4299.03
309.37,6201.06
310.06,10028.51
310.76,16976.25
311.46,26720.20
312.15,36381.81
312.85,41853.18
313.55,40604.04
314.25,33325.75
314.94,23196.74
315.64,13759.32
316.34,10424.00
317.04,7088.68
317.73,3343.79
318.43,1598.79
319.13,882.43
319.82,608.46
320.52,508.57
321.22,476.64
321.92,476.09
322.61,495.33
323.31,526.76
324.01,561.20
324.70,589.16
325.40,595.48
326.10,601.80
326.80,593.72
327.49,567.81
328.19,535.39
328.89,508.39
329.58,489.66
330.28,471.35
330.98,442.93
331.68,399.82
332.37,346.51
333.07,293.46
333.77,271.63
334.46,249.81
335.16,218.06
335.86,194.85
336.56,175.11
337.25,155.62
337.95,135.65
338.65,115.56
339.35,96.41
340.04,79.59
340.74,66.14
341.44,56.61
342.13,50.77
342.83,48.97
343.53,47.17
344.23,44.24
344.92,41.41
345.62,38.71
346.32,35.77
347.01,32.18
347.71,28.21
348.41,24.51
349.11,21.15
349.80,18.03
350.50,15.54
351.20,14.60
351.89,13.65
352.59,11.50
353.29,9.06
353.99,7.51
354.68,7.28
355.38,7.08
356.08,5.81
356.77,4.41
357.47,4.17
358.17,4.68
358.87,4.79
359.56,4.38
360.26,4.22
360.96,4.05
361.65,4.02
362.35,3.73
363.05,2.68
363.75,1.29
364.44,0.23
365.14,-0.19
365.84,0.20
366.54,1.26
367.23,2.37
367.93,3.23
368.63,3.73
369.32,4.23
370.02,5.17
370.72,4.81
371.42,3.08
372.11,1.86
372.81,2.30
373.51,3.54
374.20,4.63
374.90,5.55
375.60,6.49
376.30,7.24
376.99,7.04
377.69,6.27
378.39,5.49
379.08,3.62
379.78,2.57
380.48,2.07
381.18,1.45
381.87,0.95
382.57,0.86
383.27,0.55
383.96,-0.47
384.66,-1.64
385.36,-2.30
386.06,-2.25
386.75,-2.20
387.45,-1.26
388.15,0.18
388.85,1.29
389.54,1.68
390.24,1.51
390.94,0.62
391.63,-0.87
392.33,-1.98
393.03,-2.43
393.73,-2.65
394.42,-2.27
395.12,-1.69
395.82,-1.11
396.51,-0.16
397.21,-0.11
397.91,-0.49
398.61,-0.66
399.30,-0.70
400.00,-0.69
401.00,-0.31
401.72,0.11
402.45,-0.01
403.17,-0.48
403.89,-0.64
404.61,-0.81
405.34,-0.98
406.06,-1.46
406.78,-2.56
407.50,-3.52
408.23,-3.68
408.95,-3.68
409.67,-3.82
410.39,-2.94
411.12,-0.60
411.84,2.08
412.56,4.03
413.28,4.53
414.01,5.03
414.73,5.12
415.45,4.45
416.18,3.45
416.90,2.75
417.62,2.36
418.34,1.60
419.07,0.29
419.79,-0.74
420.51,-0.74
421.23,-0.18
421.96,-0.38
422.68,-1.05
423.40,-1.73
424.12,-2.88
424.85,-2.80
425.57,-2.33
426.29,-2.43
427.01,-2.46
427.74,-1.83
428.46,-1.08
429.18,-0.55
429.91,-0.08
430.63,0.28
431.35,0.35
432.07,0.42
432.80,0.25
433.52,-0.23
434.24,-0.32
434.96,0.72
435.69,2.21
436.41,2.83
437.13,2.74
437.85,2.99
438.58,3.60
439.30,3.57
440.02,2.84
440.74,2.73
441.47,2.62
442.19,3.21
442.91,3.48
443.64,3.11
444.36,2.92
445.08,2.80
445.80,1.83
446.53,0.33
447.25,-0.62
447.97,-1.00
448.69,-1.39
449.42,-1.56
450.14,-1.73
450.86,-1.82
451.58,-1.96
452.31,-2.15
453.03,-2.04
453.75,-1.87
454.47,-1.99
455.20,-2.02
455.92,-1.30
456.64,0.25
457.36,1.81
458.09,2.28
458.81,1.91
459.53,1.55
460.26,0.31
460.98,-1.20
461.70,-2.73
462.42,-3.25
463.15,-2.48
463.87,-1.75
464.59,-2.03
465.31,-2.50
466.04,-1.76
466.76,0.08
467.48,0.74
468.20,1.40
468.93,1.02
469.65,-0.35
470.37,-1.40
471.09,-1.72
471.82,-1.65
472.54,-1.38
473.26,-0.78
473.99,0.34
474.71,1.47
475.43,1.56
476.15,0.48
476.88,-0.16
477.60,-0.81
478.32,-1.37
479.04,-1.12
479.77,-1.14
480.49,-2.50
481.21,-4.34
481.93,-4.67
482.66,-3.04
483.38,-0.68
484.10,1.34
484.82,2.79
485.55,3.30
486.27,3.81
486.99,4.14
487.72,3.62
488.44,2.84
489.16,2.36
489.88,2.42
490.61,3.36
491.33,4.94
492.05,5.94
492.77,5.41
493.50,3.97
494.22,3.17
494.94,3.46
495.66,3.75
496.39,5.10
497.11,6.26
497.83,6.91
498.55,7.01
499.28,6.21
500.00,4.79
501.00,3.85
502.01,4.04
503.02,4.92
504.03,5.48
505.04,5.16
506.05,4.84
507.06,3.20
508.07,1.92
509.08,1.80
510.09,2.30
511.10,2.77
512.11,3.06
513.12,3.27
514.13,3.63
515.14,4.24
516.15,4.43
517.16,3.40
518.17,2.57
519.18,1.74
520.19,1.12
521.20,1.99
522.21,2.99
523.22,3.04
524.23,2.74
525.24,2.70
526.26,2.18
527.27,0.84
528.28,-0.33
529.29,-0.58
530.30,-0.45
531.31,-0.31
532.32,0.00
533.33,0.41
534.34,0.78
535.35,0.77
536.36,0.44
537.37,0.22
538.38,0.30
539.39,0.55
540.40,0.69
541.41,0.57
542.42,0.60
543.43,0.92
544.44,1.24
545.45,1.82
546.46,1.34
547.47,0.23
548.48,-0.49
549.49,-1.16
550.50,-2.41
551.51,-3.11
552.52,-1.80
553.53,0.67
554.54,2.03
555.55,1.79
556.56,1.55
557.57,0.11
558.58,-1.34
559.59,-1.74
560.60,-0.24
561.61,2.18
562.62,3.44
563.63,3.04
564.64,2.23
565.65,1.95
566.66,1.81
567.67,1.20
568.68,0.75
569.69,0.31
570.70,-0.39
571.71,-0.78
572.72,-0.84
573.73,-0.41
574.74,0.44
575.76,0.97
576.77,0.91
577.78,1.19
578.79,2.41
579.80,3.61
580.81,3.60
581.82,3.03
582.83,2.46
583.84,1.38
584.85,1.35
585.86,2.37
586.87,3.59
587.88,4.10
588.89,3.95
589.90,3.82
590.91,3.83
591.92,3.48
592.93,2.87
593.94,2.79
594.95,2.70
595.96,3.28
596.97,3.97
597.98,4.08
598.99,3.89
600.00,3.97
601.00,4.22
602.18,4.24
603.36,3.91
604.54,3.63
605.71,3.93
606.89,4.74
608.07,5.06
609.25,5.37
610.43,5.26
611.61,4.48
612.79,3.40
613.96,2.61
615.14,2.67
616.32,3.39
617.50,3.95
618.68,4.05
619.86,4.02
621.04,4.10
622.21,4.07
623.39,4.05
624.57,3.69
625.75,3.16
626.93,2.41
628.11,1.44
629.29,0.85
630.46,1.05
631.64,1.87
632.82,3.02
634.00,4.01
635.18,4.03
636.36,2.85
637.54,1.93
638.71,1.00
639.89,-0.89
641.07,-2.17
642.25,-2.44
643.43,-1.91
644.61,-1.20
645.79,-0.67
646.96,-0.26
648.14,-0.17
649.32,-0.67
650.50,-1.21
651.68,-1.06
652.86,-0.90
654.04,0.27
655.21,1.49
656.39,1.96
657.57,1.59
658.75,1.26
659.93,1.84
661.11,2.75
662.29,2.51
663.46,1.03
664.64,-0.11
665.82,0.05
667.00,0.58
668.18,1.11
669.36,2.83
670.54,4.91
671.71,6.11
672.89,5.71
674.07,4.60
675.25,3.79
676.43,3.47
677.61,3.57
678.79,3.33
679.96,2.16
681.14,1.55
682.32,0.93
683.50,0.45
684.68,0.18
685.86,-0.16
687.04,-0.22
688.21,-0.10
689.39,-0.07
690.57,0.01
691.75,0.37
692.93,0.98
694.11,1.72
695.29,2.59
696.46,3.02
697.64,3.46
698.82,3.83
700.00,3.61
701.00,3.32
702.98,3.24
704.96,2.96
706.94,2.27
708.92,1.91
710.90,2.41
712.88,3.20
714.86,3.74
716.84,4.01
718.82,4.28
720.80,4.62
722.78,4.03
724.76,2.44
726.74,0.84
728.72,0.34
730.70,1.05
732.68,1.99
734.66,2.36
736.64,2.39
738.62,2.43
740.60,2.29
742.58,2.15
744.56,2.02
746.54,2.05
748.52,2.38
750.50,2.73
752.48,2.98
754.46,2.95
756.44,2.71
758.42,2.46
760.40,1.73
762.38,0.59
764.36,0.12
766.34,0.29
768.32,0.45
770.30,0.80
772.28,0.92
774.26,0.77
776.24,0.22
778.22,-0.23
780.20,-0.04
782.18,0.50
784.16,0.74
786.14,0.55
788.12,0.46
790.10,0.94
792.08,1.38
794.06,1.82
796.04,2.37
798.02,2.42
800.00,2.39
801.00,2.18
803.36,1.45
805.71,0.42
808.07,-0.21
810.43,0.30
812.79,1.75
815.14,2.72
817.50,2.43
819.86,2.14
822.21,0.70
824.57,-0.14
826.93,0.16
829.29,1.04
831.64,1.96
834.00,2.71
836.36,2.51
838.71,0.84
841.07,-0.91
843.43,-1.02
845.79,0.03
848.14,0.39
850.50,0.76
852.86,1.10
855.21,1.64
857.57,1.95
859.93,1.34
862.29,0.09
864.64,-0.73
867.00,-0.25
869.36,1.33
871.71,2.72
874.07,2.97
876.43,2.64
878.79,2.30
881.14,1.61
883.50,1.63
885.86,2.24
888.21,2.68
890.57,2.29
892.93,1.10
895.29,-0.08
897.64,-0.47
900.00,-0.24
901.00,-0.21
904.67,-0.80
908.33,-1.26
912.00,-1.72
915.67,-2.31
919.33,-2.33
923.00,-2.27
926.67,-2.23
930.33,-1.65
934.00,-0.90
937.67,-1.00
941.33,-1.45
945.00,-0.89
948.67,0.63
952.33,1.27
956.00,1.91
959.67,2.63
963.33,2.99
967.00,2.54
970.67,1.31
974.33,0.17
978.00,-0.77
981.67,-1.58
985.33,-1.25
989.00,0.42
992.67,1.45
996.33,0.42
1000.00,-0.52
1001.00,-1.47
1006.10,-2.48
1011.21,-2.36
1016.31,-1.62
1021.41,-0.73
1026.51,0.00
1031.62,0.46
1036.72,0.60
1041.82,0.38
1046.92,-0.12
1052.03,-0.54
1057.13,-0.35
1062.23,0.03
1067.33,0.40
1072.44,0.95
1077.54,0.90
1082.64,0.51
1087.74,0.34
1092.85,1.06
1097.95,2.41
1103.05,3.06
1108.15,2.25
1113.26,0.58
1118.36,-0.59
1123.46,-0.58
1128.56,-0.56
1133.67,0.11
1138.77,0.68
1143.87,1.05
1148.97,1.37
1154.08,1.49
1159.18,1.30
1164.28,1.04
1169.38,1.15
1174.49,1.73
1179.59,2.15
1184.69,1.42
1189.79,0.45
1194.90,-0.52
1200.00,-1.80
1201.00,-0.81
1210.06,1.02
1219.12,1.30
1228.18,0.22
1237.24,-0.73
1246.30,-1.28
1255.36,-1.45
1264.42,-0.71
1273.48,0.76
1282.55,1.23
1291.61,1.71
1300.67,1.24
1309.73,-0.04
1318.79,-0.40
1327.85,0.93
1336.91,2.48
1345.97,2.71
1355.03,2.03
1364.09,1.20
1373.15,0.33
1382.21,-0.06
1391.27,0.72
1400.33,1.39
1409.39,2.06
1418.45,2.47
1427.52,1.39
1436.58,0.00
1445.64,-0.25
1454.70,0.69
1463.76,1.74
1472.82,1.97
1481.88,1.44
1490.94,1.05
1500.00,1.43
1501.00,1.78
1510.24,2.13
1519.48,2.24
1528.72,1.39
1537.96,0.17
1547.20,-0.47
1556.44,-0.32
1565.69,0.04
1574.93,0.08
1584.17,-0.00
1593.41,0.34
1602.65,1.08
1611.89,1.77
1621.13,2.03
1630.37,2.30
1639.61,2.75
1648.85,2.91
1658.09,2.57
1667.33,2.15
1676.57,2.58
1685.81,4.18
1695.06,5.93
1704.30,6.71
1713.54,6.39
1722.78,5.43
1732.02,4.86
1741.26,4.29
1750.50,3.32
1759.74,2.76
1768.98,2.33
1778.22,1.84
1787.46,1.84
1796.70,2.31
1805.94,2.41
1815.19,2.14
1824.43,2.28
1833.67,2.79
1842.91,3.19
1852.15,3.41
1861.39,3.63
1870.63,4.18
1879.87,4.51
1889.11,4.60
1898.35,4.70
1907.59,4.73
1916.83,4.71
1926.07,4.78
1935.31,4.47
1944.56,3.51
1953.80,2.89
1963.04,3.18
1972.28,3.47
1981.52,4.72
1990.76,5.56
2000.00,5.28
2001.00,3.81
2018.22,2.11
2035.45,1.69
2052.67,3.27
2069.90,5.69
2087.12,6.62
2104.34,4.99
2121.57,2.21
2138.79,1.27
2156.02,0.32
2173.24,0.23
2190.47,1.65
2207.69,3.53
2224.91,4.48
2242.14,4.09
2259.36,3.54
2276.59,3.78
2293.81,4.11
2311.03,4.08
2328.26,4.50
2345.48,5.11
2362.71,5.72
2379.93,6.86
2397.16,6.91
2414.38,5.75
2431.60,4.57
2448.83,4.74
2466.05,6.05
2483.28,6.99
2500.50,6.77
2517.72,5.82
2534.95,4.78
2552.17,3.92
2569.40,3.55
2586.62,3.18
2603.84,2.62
2621.07,2.68
2638.29,3.58
2655.52,4.70
2672.74,5.33
2689.97,5.38
2707.19,5.20
2724.41,4.99
2741.64,4.86
2758.86,5.16
2776.09,5.47
2793.31,5.79
2810.53,6.16
2827.76,6.10
2844.98,6.02
2862.21,6.16
2879.43,6.15
2896.66,5.67
2913.88,5.07
2931.10,4.87
2948.33,4.95
2965.55,5.00
2982.78,5.08
3000.00,5.08
3001.00,5.08
3025.99,4.50
3050.98,3.52
3075.98,3.30
3100.97,4.31
3125.96,5.25
3150.95,4.94
3175.94,3.97
3200.93,3.35
3225.93,3.35
3250.92,3.90
3275.91,4.52
3300.90,4.65
3325.89,4.77
3350.88,4.81
3375.87,4.85
3400.87,5.23
3425.86,6.20
3450.85,6.87
3475.84,6.37
3500.83,5.67
3525.82,5.83
3550.82,6.23
3575.81,6.22
3600.80,6.16
3625.79,6.09
3650.78,5.94
3675.77,5.53
3700.77,5.25
3725.76,5.36
3750.75,5.43
3775.74,5.33
3800.73,5.60
3825.73,6.23
3850.72,6.40
3875.71,5.49
3900.70,3.87
3925.69,3.24
3950.68,2.62
3975.68,2.43
4000.67,2.92
4025.66,3.25
4050.65,3.05
4075.64,2.72
4100.63,2.88
4125.62,3.16
4150.62,2.64
4175.61,1.64
4200.60,1.32
4225.59,1.47
4250.58,1.63
4275.58,1.74
4300.57,1.65
4325.56,1.77
4350.55,2.09
4375.54,2.65
4400.53,3.76
4425.52,5.07
4450.52,5.60
4475.51,4.98
4500.50,4.04
4525.49,3.87
4550.48,4.20
4575.48,4.53
4600.47,5.12
4625.46,5.06
4650.45,4.70
4675.44,4.72
4700.43,5.46
4725.42,6.72
4750.42,7.88
4775.41,8.41
4800.40,8.24
4825.39,7.44
4850.38,6.80
4875.37,6.16
4900.37,4.80
4925.36,3.95
4950.35,3.87
4975.34,4.31
5000.33,4.57
5025.33,4.21
5050.32,3.75
5075.31,3.86
5100.30,4.09
5125.29,3.58
5150.28,2.59
5175.27,2.44
5200.27,2.28
5225.26,3.08
5250.25,4.36
5275.24,5.49
5300.23,6.49
5325.23,7.50
5350.22,8.13
5375.21,7.91
5400.20,7.05
5425.19,6.29
5450.18,6.10
5475.17,6.01
5500.17,5.92
5525.16,4.96
5550.15,3.90
5575.14,3.84
5600.13,4.61
5625.12,5.56
5650.12,7.23
5675.11,12.22
5700.10,26.33
5725.09,60.06
5750.08,130.31
5775.08,260.66
5800.07,367.81
5825.06,474.96
