Size (bp),Intensity
0.58,1313.19
1.00,1071.61
2.00,693.80
2.42,368.52
2.84,176.80
3.26,93.07
3.68,78.57
4.10,64.07
4.52,55.85
4.94,53.82
5.36,52.80
5.79,51.83
6.21,50.35
6.63,46.94
7.05,41.29
7.47,34.85
7.89,28.90
8.31,23.29
8.73,17.87
9.15,13.57
9.57,12.34
9.99,11.10
10.41,9.74
10.83,8.66
11.25,8.07
11.67,7.99
12.09,7.65
12.52,6.74
12.94,5.82
13.36,5.23
13.78,4.92
14.20,4.99
14.62,5.53
15.04,6.23
15.46,6.72
15.88,7.21
16.30,9.15
16.72,11.68
17.14,13.12
17.56,12.62
17.98,10.82
18.40,8.64
18.82,6.92
19.24,6.01
19.67,5.35
20.09,4.60
20.51,3.93
20.93,3.46
21.35,3.50
21.77,3.54
22.19,4.11
22.61,4.11
23.03,3.15
23.45,2.23
23.87,2.01
24.29,2.15
24.71,2.29
25.13,2.48
25.55,2.67
25.97,2.64
26.39,2.42
26.82,2.34
27.24,2.53
27.66,2.72
28.08,3.29
28.50,3.44
28.92,3.31
29.34,3.37
29.76,2.95
30.18,1.64
30.60,0.69
31.02,1.19
31.44,2.58
31.86,3.81
32.28,4.37
32.70,3.89
33.12,3.22
33.55,2.55
33.97,1.78
34.39,2.73
34.81,4.62
35.23,5.92
35.65,6.23
36.07,6.36
36.49,7.13
36.91,8.63
37.33,10.09
37.75,10.59
38.17,10.42
38.59,10.84
39.01,11.43
39.43,12.02
39.85,12.77
40.27,12.58
40.70,12.22
41.12,12.24
41.54,12.41
41.96,12.74
42.38,13.25
42.80,13.49
43.22,13.61
43.64,14.78
44.06,17.21
44.48,19.17
44.90,19.25
45.32,19.33
45.74,18.60
46.16,18.41
46.58,18.71
47.00,18.74
47.42,18.19
47.85,17.21
48.27,16.29
48.69,15.94
49.11,16.10
49.53,16.22
49.95,16.13
50.37,16.21
50.79,16.29
51.21,17.29
51.63,19.00
52.05,20.71
52.47,22.36
52.89,24.91
53.31,29.36
53.73,37.01
54.15,48.66
54.58,61.47
55.00,68.71
55.42,65.74
55.84,55.10
56.26,49.39
56.68,43.68
57.10,35.96
57.52,31.94
57.94,30.21
58.36,29.66
58.78,29.29
59.20,28.90
59.62,28.99
60.04,29.21
60.46,28.63
60.88,27.16
61.30,25.32
61.73,23.62
62.15,23.17
62.57,22.73
62.99,22.77
63.41,22.63
63.83,21.26
64.25,18.95
64.67,16.70
65.09,15.20
65.51,14.32
65.93,13.43
66.35,12.59
66.77,12.35
67.19,12.29
67.61,11.96
68.03,12.17
68.45,12.37
68.88,13.93
69.30,15.23
69.72,15.26
70.14,14.49
70.56,13.51
70.98,12.65
71.40,12.29
71.82,12.35
72.24,12.37
72.66,12.15
73.08,11.95
73.50,11.93
73.92,11.86
74.34,11.78
74.76,11.20
75.18,10.67
75.61,10.78
76.03,11.11
76.45,10.75
76.87,9.83
77.29,9.28
77.71,9.51
78.13,10.23
78.55,11.06
78.97,11.61
79.39,11.34
79.81,10.83
80.23,10.33
80.65,9.61
81.07,9.87
81.49,10.55
81.91,10.87
82.33,10.90
82.76,11.05
83.18,11.26
83.60,11.14
84.02,10.92
84.44,11.50
84.86,12.56
85.28,12.67
85.70,12.18
86.12,11.69
86.54,10.86
86.96,10.81
87.38,11.13
87.80,10.89
88.22,9.55
88.64,8.27
89.06,8.63
89.48,9.64
89.91,9.39
90.33,8.38
90.75,8.30
91.17,9.39
91.59,9.95
92.01,10.52
92.43,10.77
92.85,10.24
93.27,9.53
93.69,9.33
94.11,9.81
94.53,10.21
94.95,9.64
95.37,8.17
95.79,6.71
96.21,6.33
96.64,7.25
97.06,8.69
97.48,9.27
97.90,9.85
98.32,10.38
98.74,10.39
99.16,10.30
99.58,10.44
100.00,10.71
101.00,10.64
101.52,10.55
102.04,11.58
102.56,13.79
103.08,15.47
103.61,15.38
104.13,14.08
104.65,13.50
105.17,12.91
105.69,12.46
106.21,12.47
106.73,12.58
107.25,12.65
107.77,12.79
108.29,13.40
108.82,14.65
109.34,15.96
109.86,16.44
110.38,15.88
110.90,14.91
111.42,14.30
111.94,14.34
112.46,14.38
112.98,14.80
113.51,14.79
114.03,14.16
114.55,13.60
115.07,13.52
115.59,13.59
116.11,13.40
116.63,13.23
117.15,13.45
117.67,13.84
118.19,14.09
118.72,14.16
119.24,14.06
119.76,13.95
120.28,13.32
120.80,12.79
121.32,13.09
121.84,13.87
122.36,14.13
122.88,14.26
123.41,15.37
123.93,16.81
124.45,16.93
124.97,15.98
125.49,15.54
126.01,15.76
126.53,15.62
127.05,15.48
127.57,14.51
128.09,13.64
128.62,13.43
129.14,14.06
129.66,14.92
130.18,15.07
130.70,14.78
131.22,15.06
131.74,15.93
132.26,16.76
132.78,17.25
133.31,17.09
133.83,16.74
134.35,16.39
134.87,15.93
135.39,15.86
135.91,15.43
136.43,14.59
136.95,13.98
137.47,13.98
137.99,14.53
138.52,15.50
139.04,16.67
139.56,17.51
140.08,17.45
140.60,16.75
141.12,16.72
141.64,16.69
142.16,17.92
142.68,19.34
143.21,19.61
143.73,18.92
144.25,18.47
144.77,18.84
145.29,19.55
145.81,19.91
146.33,20.22
146.85,21.20
147.37,22.64
147.89,23.25
148.42,23.86
148.94,24.75
149.46,25.34
149.98,25.58
150.50,25.64
151.02,25.75
151.54,26.00
152.06,26.53
152.58,27.44
153.11,28.77
153.63,30.83
154.15,33.97
154.67,37.64
155.19,38.99
155.71,40.33
156.23,41.06
156.75,40.77
157.27,41.22
157.79,42.75
158.32,44.21
158.84,44.72
159.36,44.03
159.88,42.14
160.40,39.71
160.92,37.49
161.44,35.68
161.96,34.49
162.48,34.28
163.01,34.08
163.53,33.75
164.05,32.83
164.57,32.02
165.09,32.44
165.61,33.85
166.13,35.16
166.65,35.94
167.17,36.25
167.69,36.44
168.22,37.08
168.74,38.02
169.26,38.55
169.78,38.65
170.30,38.76
170.82,39.38
171.34,40.94
171.86,43.13
172.38,44.88
172.91,45.80
173.43,46.51
173.95,47.07
174.47,47.35
174.99,48.12
175.51,49.88
176.03,52.16
176.55,54.57
177.07,55.98
177.59,57.38
178.12,60.93
178.64,64.59
179.16,67.24
179.68,69.13
180.20,71.52
180.72,74.70
181.24,77.99
181.76,81.13
182.28,84.46
182.81,88.71
183.33,94.18
183.85,99.82
184.37,102.10
184.89,104.38
185.41,107.67
185.93,109.74
186.45,110.98
186.97,112.96
187.49,116.98
188.02,121.95
188.54,126.04
189.06,128.87
189.58,130.71
190.10,131.71
190.62,132.29
191.14,132.96
191.66,133.64
192.18,134.31
192.71,136.95
193.23,140.25
193.75,142.60
194.27,144.03
194.79,145.82
195.31,148.39
195.83,151.64
196.35,155.73
196.87,160.18
197.39,164.32
197.92,168.23
198.44,172.20
198.96,174.32
199.48,176.45
200.00,181.67
201.00,188.75
201.59,197.26
202.17,205.01
202.76,210.76
203.34,216.22
203.93,222.90
204.51,229.73
205.10,235.67
205.69,241.58
206.27,248.26
206.86,255.14
207.44,258.14
208.03,261.14
208.62,266.05
209.20,270.51
209.79,275.12
210.37,280.03
210.96,285.26
211.54,290.87
212.13,297.19
212.72,304.59
213.30,312.39
213.89,319.02
214.47,324.20
215.06,329.84
215.64,333.96
216.23,338.08
216.82,348.63
217.40,359.08
217.99,368.45
218.57,378.03
219.16,388.27
219.75,398.09
220.33,407.28
220.92,416.67
221.50,426.25
222.09,434.86
222.67,441.78
223.26,447.58
223.85,450.75
224.43,453.92
225.02,462.38
225.60,472.39
226.19,481.94
226.78,490.36
227.36,498.91
227.95,508.82
228.53,519.89
229.12,531.16
229.70,542.43
230.29,554.57
230.88,568.05
231.46,581.77
232.05,588.11
232.63,594.46
233.22,606.60
233.80,619.10
234.39,631.65
234.98,643.91
235.56,656.10
236.15,668.05
236.73,680.22
237.32,694.30
237.91,710.74
238.49,727.69
239.08,743.91
239.66,760.41
240.25,769.32
240.83,778.22
241.42,796.33
242.01,812.74
242.59,826.79
243.18,839.44
243.76,851.07
244.35,860.46
244.93,866.76
245.52,870.87
246.11,875.18
246.69,882.04
247.28,891.35
247.86,900.99
248.45,905.45
249.04,909.91
249.62,918.63
250.21,927.27
250.79,934.68
251.38,939.04
251.96,939.85
252.55,939.38
253.14,940.79
253.72,945.31
254.31,952.31
254.89,960.65
255.48,969.43
256.07,978.56
256.65,983.19
257.24,987.82
257.82,995.65
258.41,1000.74
258.99,1003.62
259.58,1004.95
260.17,1004.56
260.75,1002.59
261.34,1000.21
261.92,999.26
262.51,1000.85
263.09,1004.73
263.68,1010.56
264.27,1014.53
264.85,1018.50
265.44,1028.28
266.02,1039.32
266.61,1051.12
267.20,1062.50
267.78,1071.78
268.37,1078.45
268.95,1083.45
269.54,1087.72
270.12,1091.90
270.71,1097.12
271.30,1103.92
271.88,1110.92
272.47,1113.53
273.05,1116.14
273.64,1119.15
274.22,1121.34
274.81,1124.31
275.40,1128.58
275.98,1133.97
276.57,1139.89
277.15,1144.69
277.74,1146.76
278.33,1146.61
278.91,1146.22
279.50,1146.97
280.08,1148.73
280.67,1149.56
281.25,1150.39
281.84,1151.30
282.43,1152.61
283.01,1156.23
283.60,1163.06
284.18,1172.92
284.77,1184.31
285.36,1194.00
285.94,1199.47
286.53,1201.13
287.11,1200.09
287.70,1196.14
288.28,1189.88
288.87,1187.24
289.46,1184.61
290.04,1183.59
290.63,1186.81
291.21,1192.20
291.80,1198.42
292.38,1205.39
292.97,1213.16
293.56,1220.69
294.14,1226.67
294.73,1231.30
295.31,1235.55
295.90,1239.78
296.49,1244.14
297.07,1246.49
297.66,1248.85
298.24,1254.07
298.83,1259.75
299.41,1264.80
300.00,1267.66
301.00,1268.16
301.70,1267.83
302.39,1269.25
303.09,1274.07
303.79,1281.08
304.49,1288.27
305.18,1294.94
305.88,1300.27
306.58,1301.57
307.27,1302.86
307.97,1303.36
308.67,1304.72
309.37,1308.50
310.06,1313.30
310.76,1317.88
311.46,1322.30
312.15,1325.26
312.85,1323.97
313.55,1316.63
314.25,1303.27
314.94,1285.97
315.64,1267.93
316.34,1259.47
317.04,1251.01
317.73,1235.29
318.43,1220.91
319.13,1208.51
319.82,1198.02
320.52,1188.85
321.22,1181.15
321.92,1175.76
322.61,1172.54
323.31,1170.24
324.01,1168.04
324.70,1165.82
325.40,1163.60
326.10,1162.37
326.80,1161.15
327.49,1157.79
328.19,1153.40
328.89,1149.09
329.58,1145.84
330.28,1143.74
330.98,1142.77
331.68,1142.81
332.37,1143.09
333.07,1142.71
333.77,1142.07
334.46,1143.21
335.16,1147.70
335.86,1151.34
336.56,1154.98
337.25,1163.54
337.95,1172.07
338.65,1179.20
339.35,1183.62
340.04,1185.60
340.74,1187.14
341.44,1188.62
342.13,1187.76
342.83,1183.56
343.53,1177.82
344.23,1172.25
344.92,1166.79
345.62,1163.76
346.32,1160.73
347.01,1154.18
347.71,1148.25
348.41,1144.07
349.11,1142.97
349.80,1146.18
350.50,1154.25
351.20,1166.67
351.89,1181.25
352.59,1194.22
353.29,1202.36
353.99,1204.93
354.68,1203.53
355.38,1201.73
356.08,1199.94
356.77,1195.48
357.47,1191.20
358.17,1185.76
358.87,1176.53
359.56,1164.56
360.26,1153.97
360.96,1146.90
361.65,1142.95
362.35,1141.08
363.05,1140.12
363.75,1138.69
364.44,1135.48
365.14,1132.97
365.84,1130.45
366.54,1124.95
367.23,1120.37
367.93,1117.34
368.63,1115.64
369.32,1113.86
370.02,1110.30
370.72,1104.92
371.42,1099.06
372.11,1093.17
372.81,1087.17
373.51,1082.63
374.20,1081.89
374.90,1083.68
375.60,1085.47
376.30,1092.14
376.99,1101.20
377.69,1112.39
378.39,1123.63
379.08,1131.75
379.78,1135.89
380.48,1137.69
381.18,1138.47
381.87,1138.02
382.57,1135.97
383.27,1133.00
383.96,1130.21
384.66,1129.10
385.36,1128.00
386.06,1125.99
386.75,1123.86
387.45,1121.61
388.15,1118.58
388.85,1114.25
389.54,1109.74
390.24,1106.85
390.94,1106.49
391.63,1108.91
392.33,1114.50
393.03,1123.41
393.73,1135.19
394.42,1142.14
395.12,1149.08
395.82,1163.41
396.51,1175.33
397.21,1182.19
397.91,1183.22
398.61,1180.07
399.30,1175.46
400.00,1171.76
401.00,1170.72
401.72,1172.91
402.45,1176.72
403.17,1179.69
403.89,1180.36
404.61,1181.02
405.34,1181.63
406.06,1181.91
406.78,1180.88
407.50,1176.71
408.23,1167.49
408.95,1152.74
409.67,1133.77
410.39,1112.57
411.12,1091.51
411.84,1073.62
412.56,1061.32
413.28,1054.02
414.01,1051.23
414.73,1048.43
415.45,1042.06
416.18,1034.65
416.90,1026.23
417.62,1016.09
418.34,1004.52
419.07,993.70
419.79,985.68
420.51,981.10
421.23,979.21
421.96,978.56
422.68,978.98
423.40,981.49
424.12,983.63
424.85,985.78
425.57,990.18
426.29,993.01
427.01,993.46
427.74,993.04
428.46,994.07
429.18,996.95
429.91,1000.85
430.63,1005.42
431.35,1010.31
432.07,1015.01
432.80,1019.73
433.52,1025.76
434.24,1030.18
434.96,1034.59
435.69,1046.26
436.41,1058.06
437.13,1065.84
437.85,1067.76
438.58,1064.81
439.30,1058.03
440.02,1048.29
440.74,1036.98
441.47,1024.48
442.19,1010.70
442.91,997.31
443.64,986.45
444.36,982.52
445.08,978.59
445.80,974.00
446.53,973.29
447.25,975.53
447.97,978.78
448.69,981.64
449.42,982.64
450.14,980.89
450.86,977.51
451.58,974.73
452.31,974.31
453.03,976.87
453.75,981.16
454.47,982.81
455.20,984.47
455.92,984.92
456.64,982.64
457.36,978.42
458.09,971.97
458.81,962.84
459.53,952.27
460.26,942.14
460.98,933.86
461.70,928.16
462.42,924.06
463.15,919.67
463.87,914.59
464.59,912.05
465.31,909.50
466.04,904.53
466.76,899.61
467.48,894.88
468.20,890.61
468.93,887.28
469.65,885.03
470.37,883.08
471.09,880.16
471.82,875.72
472.54,870.77
473.26,866.83
473.99,864.47
474.71,864.30
475.43,864.13
476.15,866.36
476.88,869.47
477.60,870.39
478.32,868.63
479.04,865.08
479.77,858.82
480.49,849.86
481.21,841.93
481.93,837.80
482.66,836.32
483.38,835.80
484.10,835.80
484.82,835.72
485.55,835.63
486.27,834.77
486.99,833.82
487.72,833.65
488.44,834.60
489.16,836.79
489.88,840.02
490.61,843.08
491.33,843.93
492.05,840.96
492.77,834.32
493.50,826.16
494.22,819.05
494.94,816.55
495.66,814.05
496.39,810.68
497.11,808.12
497.83,806.46
498.55,806.27
499.28,806.76
500.00,806.04
501.00,803.35
502.01,799.79
503.02,796.93
504.03,795.51
505.04,795.91
506.05,798.32
507.06,800.06
508.07,801.81
509.08,805.62
510.09,809.70
511.10,811.99
512.11,809.35
513.12,801.87
514.13,792.10
515.14,781.42
516.15,770.87
517.16,762.84
518.17,759.07
519.18,759.65
520.19,763.53
521.20,766.06
522.21,768.59
523.22,772.74
524.23,774.59
525.24,772.81
526.26,767.00
527.27,758.28
528.28,748.06
529.29,737.39
530.30,726.78
531.31,715.96
532.32,705.17
533.33,695.86
534.34,689.20
535.35,687.20
536.36,685.20
537.37,683.65
538.38,684.12
539.39,685.34
540.40,686.72
541.41,688.95
542.42,692.42
543.43,697.08
544.44,702.54
545.45,707.23
546.46,709.53
547.47,709.33
548.48,707.40
549.49,705.80
550.50,704.20
551.51,699.28
552.52,692.67
553.53,686.50
554.54,683.44
555.55,684.01
556.56,686.89
557.57,690.91
558.58,695.55
559.59,699.95
560.60,703.12
561.61,704.66
562.62,703.66
563.63,701.09
564.64,698.53
565.65,689.83
566.66,680.91
567.67,674.14
568.68,669.06
569.69,664.89
570.70,662.17
571.71,661.06
572.72,659.86
573.73,656.83
574.74,652.17
575.76,646.67
576.77,640.56
577.78,637.62
578.79,634.67
579.80,630.28
580.81,627.77
581.82,626.39
582.83,625.19
583.84,624.08
584.85,623.50
585.86,622.97
586.87,621.41
587.88,618.24
588.89,613.32
589.90,607.08
590.91,603.94
591.92,600.80
592.93,595.13
593.94,589.11
594.95,582.30
595.96,576.24
596.97,572.10
597.98,568.82
598.99,565.24
600.00,562.15
601.00,560.49
602.18,559.63
603.36,558.94
604.54,559.46
605.71,561.19
606.89,562.93
608.07,569.74
609.25,578.19
610.43,586.36
611.61,593.74
612.79,600.13
613.96,604.33
615.14,604.72
616.32,601.18
617.50,595.80
618.68,590.58
619.86,585.29
621.04,579.04
622.21,575.62
623.39,572.21
624.57,565.46
625.75,558.82
626.93,552.77
628.11,547.91
629.29,543.38
630.46,538.30
631.64,533.37
632.82,529.24
634.00,525.79
635.18,522.76
636.36,519.85
637.54,517.12
638.71,516.11
639.89,515.10
641.07,514.01
642.25,513.07
643.43,510.76
644.61,506.29
645.79,500.46
646.96,493.96
648.14,486.87
649.32,479.93
650.50,473.98
651.68,469.18
652.86,465.57
654.04,462.56
655.21,461.06
656.39,459.56
657.57,458.21
658.75,460.51
659.93,464.87
661.11,467.95
662.29,468.81
663.46,468.37
664.64,467.20
665.82,465.67
667.00,464.00
668.18,461.61
669.36,458.03
670.54,453.36
671.71,450.50
672.89,447.64
674.07,441.89
675.25,437.93
676.43,435.56
677.61,432.48
678.79,427.47
679.96,421.54
681.14,416.65
682.32,413.40
683.50,410.20
684.68,405.44
685.86,399.61
687.04,394.05
688.21,391.51
689.39,388.98
690.57,384.14
691.75,379.64
692.93,375.64
694.11,372.28
695.29,369.69
696.46,367.47
697.64,364.80
698.82,360.98
700.00,356.45
701.00,352.92
702.98,351.42
704.96,350.84
706.94,350.13
708.92,349.42
710.90,346.95
712.88,344.27
714.86,340.84
716.84,335.69
718.82,329.91
720.80,325.08
722.78,320.89
724.76,316.89
726.74,313.97
728.72,312.78
730.70,312.60
732.68,312.35
734.66,311.99
736.64,311.64
738.62,310.58
740.60,309.75
742.58,309.81
744.56,310.16
746.54,309.21
748.52,306.38
750.50,302.82
752.48,299.88
754.46,297.55
756.44,294.93
758.42,292.11
760.40,290.82
762.38,291.43
764.36,292.04
766.34,294.21
768.32,295.49
770.30,296.00
772.28,296.15
774.26,295.55
776.24,294.24
778.22,292.19
780.20,289.13
782.18,285.79
784.16,283.40
786.14,281.68
788.12,279.19
790.10,277.54
792.08,275.88
794.06,273.21
796.04,271.54
798.02,269.49
800.00,266.49
801.00,263.82
803.36,262.05
805.71,259.83
808.07,256.33
810.43,252.30
812.79,248.48
815.14,245.10
817.50,242.29
819.86,240.82
822.21,239.35
824.57,234.88
826.93,228.63
829.29,222.04
831.64,216.26
834.00,211.37
836.36,207.49
838.71,204.85
841.07,202.87
843.43,201.06
845.79,200.20
848.14,200.32
850.50,199.48
852.86,198.00
855.21,196.52
857.57,192.01
859.93,186.37
862.29,180.40
864.64,175.48
867.00,171.56
869.36,167.48
871.71,163.29
874.07,159.71
876.43,156.45
878.79,153.23
881.14,150.78
883.50,149.43
885.86,148.97
888.21,148.51
890.57,147.07
892.93,144.64
895.29,141.45
897.64,137.75
900.00,133.20
901.00,128.23
904.67,124.37
908.33,122.22
912.00,120.72
915.67,118.75
919.33,116.03
923.00,113.09
926.67,112.04
930.33,111.00
934.00,110.06
937.67,109.06
941.33,106.92
945.00,104.15
948.67,101.69
952.33,99.33
956.00,96.28
959.67,92.76
963.33,90.03
967.00,88.47
970.67,87.17
974.33,86.34
978.00,85.51
981.67,83.62
985.33,81.55
989.00,79.16
992.67,76.66
996.33,74.75
1000.00,74.02
1001.00,74.00
1006.10,73.66
1011.21,72.27
1016.31,69.53
1021.41,66.06
1026.51,63.50
1031.62,63.15
1036.72,62.80
1041.82,62.92
1046.92,62.14
1052.03,60.09
1057.13,58.00
1062.23,56.89
1067.33,56.35
1072.44,55.60
1077.54,54.88
1082.64,54.77
1087.74,55.08
1092.85,54.92
1097.95,53.89
1103.05,53.21
1108.15,52.53
1113.26,51.02
1118.36,48.88
1123.46,46.46
1128.56,44.97
1133.67,44.86
1138.77,45.16
1143.87,45.05
1148.97,44.58
1154.08,43.18
1159.18,39.93
1164.28,35.97
1169.38,34.02
1174.49,34.41
1179.59,34.80
1184.69,36.13
1189.79,35.90
1194.90,34.07
1200.00,31.88
1201.00,30.52
1210.06,30.18
1219.12,29.91
1228.18,29.04
1237.24,28.58
1246.30,30.08
1255.36,32.54
1264.42,32.83
1273.48,31.41
1282.55,29.99
1291.61,26.58
1300.67,25.13
1309.73,25.24
1318.79,25.35
1327.85,25.19
1336.91,25.24
1345.97,25.37
1355.03,25.55
1364.09,26.40
1373.15,27.51
1382.21,27.49
1391.27,26.41
1400.33,26.05
1409.39,25.68
1418.45,25.73
1427.52,26.04
1436.58,26.29
1445.64,26.24
1454.70,25.68
1463.76,24.81
1472.82,24.18
1481.88,24.15
1490.94,24.49
1500.00,24.84
1501.00,25.09
1510.24,24.99
1519.48,24.45
1528.72,23.92
1537.96,21.81
1547.20,19.73
1556.44,18.79
1565.69,19.14
1574.93,20.21
1584.17,21.46
1593.41,22.32
1602.65,22.49
1611.89,22.53
1621.13,22.95
1630.37,23.34
1639.61,23.29
1648.85,23.18
1658.09,23.06
1667.33,22.65
1676.57,21.65
1685.81,20.03
1695.06,18.37
1704.30,17.53
1713.54,17.98
1722.78,19.29
1732.02,20.53
1741.26,21.06
1750.50,21.06
1759.74,21.34
1768.98,21.90
1778.22,21.73
1787.46,21.56
1796.70,19.92
1805.94,18.26
1815.19,17.87
1824.43,18.39
1833.67,18.59
1842.91,18.36
1852.15,18.44
1861.39,18.98
1870.63,19.73
1879.87,20.45
1889.11,20.56
1898.35,19.78
1907.59,19.28
1916.83,18.78
1926.07,18.08
1935.31,17.55
1944.56,17.30
1953.80,17.45
1963.04,17.64
1972.28,17.66
1981.52,17.73
1990.76,17.98
2000.00,18.17
2001.00,18.00
2018.22,17.58
2035.45,17.28
2052.67,17.18
2069.90,17.08
2087.12,16.77
2104.34,16.64
2121.57,17.06
2138.79,17.55
2156.02,17.27
2173.24,16.66
2190.47,17.28
2207.69,19.42
2224.91,21.30
2242.14,21.58
2259.36,20.81
2276.59,19.80
2293.81,19.25
2311.03,18.71
2328.26,17.61
2345.48,16.50
2362.71,15.43
2379.93,14.88
2397.16,15.46
2414.38,17.07
2431.60,18.71
2448.83,19.46
2466.05,19.52
2483.28,19.68
2500.50,19.99
2517.72,19.61
2534.95,18.92
2552.17,18.22
2569.40,17.08
2586.62,17.52
2603.84,19.10
2621.07,20.36
2638.29,20.38
2655.52,19.22
2672.74,17.88
2689.97,17.35
2707.19,17.27
2724.41,16.65
2741.64,15.97
2758.86,16.16
2776.09,16.32
2793.31,16.48
2810.53,16.30
2827.76,16.33
2844.98,16.63
2862.21,16.51
