Size (bp),Intensity
0.58,2535.84
1.00,2346.51
2.00,1719.99
2.42,1019.84
2.84,518.40
3.26,259.84
3.68,157.57
4.10,123.68
4.52,112.98
4.94,111.51
5.36,110.05
5.79,109.80
6.21,108.46
6.63,103.18
7.05,93.80
7.47,81.91
7.89,68.88
8.31,55.96
8.73,44.63
9.15,35.93
9.57,29.85
9.99,25.93
10.41,24.18
10.83,24.32
11.25,24.61
11.67,23.50
12.09,21.52
12.52,19.72
12.94,17.83
13.36,15.58
13.78,14.71
14.20,13.83
14.62,13.14
15.04,12.89
15.46,12.10
15.88,10.71
16.30,10.00
16.72,10.86
17.14,12.35
17.56,13.13
17.98,12.89
18.40,12.05
18.82,11.39
19.24,11.60
19.67,12.13
20.09,11.58
20.51,9.89
20.93,8.66
21.35,8.60
21.77,8.94
22.19,9.06
22.61,8.95
23.03,8.83
23.45,8.22
23.87,7.47
24.29,7.09
24.71,7.53
25.13,8.49
25.55,9.02
25.97,8.64
26.39,7.91
26.82,7.80
27.24,8.63
27.66,9.58
28.08,9.78
28.50,9.53
28.92,9.75
29.34,10.64
29.76,11.64
30.18,12.23
30.60,12.14
31.02,11.70
31.44,11.26
31.86,10.16
32.28,9.78
32.70,10.28
33.12,10.73
33.55,10.56
33.97,10.37
34.39,10.84
34.81,11.59
35.23,12.04
35.65,12.23
36.07,12.04
36.49,11.03
36.91,9.59
37.33,9.18
37.75,10.31
38.17,11.59
38.59,12.04
39.01,12.32
39.43,12.84
39.85,13.00
40.27,13.17
40.70,13.68
41.12,15.17
41.54,17.11
41.96,18.50
42.38,19.12
42.80,18.87
43.22,17.78
43.64,16.53
44.06,15.49
44.48,14.26
44.90,12.57
45.32,11.07
45.74,10.68
46.16,11.29
46.58,11.85
47.00,11.74
47.42,10.81
47.85,8.99
48.27,7.24
48.69,7.03
49.11,6.82
49.53,7.20
49.95,6.98
50.37,6.45
50.79,6.63
51.21,7.23
51.63,7.38
52.05,7.02
52.47,6.41
52.89,5.71
53.31,5.09
53.73,4.63
54.15,4.10
54.58,3.35
55.00,3.04
55.42,3.88
55.84,5.51
56.26,6.79
56.68,7.12
57.10,6.87
57.52,6.64
57.94,6.41
58.36,5.49
58.78,4.12
59.20,3.16
59.62,3.37
60.04,4.26
60.46,4.80
60.88,4.76
61.30,4.55
61.73,4.44
62.15,4.36
62.57,4.27
62.99,4.24
63.41,4.32
63.83,4.35
64.25,4.22
64.67,4.19
65.09,4.49
65.51,5.11
65.93,5.53
66.35,5.94
66.77,6.47
67.19,6.44
67.61,6.47
68.03,6.82
68.45,6.77
68.88,6.07
69.30,5.17
69.72,4.66
70.14,4.94
70.56,5.60
70.98,5.69
71.40,5.21
71.82,4.85
72.24,5.08
72.66,5.81
73.08,6.31
73.50,6.08
73.92,5.69
74.34,5.80
74.76,5.96
75.18,6.13
75.61,6.38
76.03,6.88
76.45,7.50
76.87,7.39
77.29,6.25
77.71,4.84
78.13,3.98
78.55,3.84
78.97,4.33
79.39,5.05
79.81,5.23
80.23,4.59
80.65,3.42
81.07,2.39
81.49,2.70
81.91,4.44
82.33,5.67
82.76,5.40
83.18,4.64
83.60,4.33
84.02,4.01
84.44,3.62
84.86,3.64
85.28,3.67
85.70,3.70
86.12,4.29
86.54,4.90
86.96,4.72
87.38,4.42
87.80,5.00
88.22,6.18
88.64,7.04
89.06,7.01
89.48,6.15
89.91,5.04
90.33,4.37
90.75,4.15
91.17,3.98
91.59,4.11
92.01,4.50
92.43,4.89
92.85,5.76
93.27,6.09
93.69,5.95
94.11,5.56
94.53,5.24
94.95,5.74
95.37,7.12
95.79,8.10
96.21,7.65
96.64,6.23
97.06,5.07
97.48,4.95
97.90,5.57
98.32,5.95
98.74,5.48
99.16,4.43
99.58,3.35
100.00,2.76
101.00,2.93
101.52,3.13
102.04,3.32
102.56,3.06
103.08,2.51
103.61,3.02
104.13,4.80
104.65,6.40
105.17,6.52
105.69,5.62
106.21,4.98
106.73,5.04
107.25,5.54
107.77,6.29
108.29,6.73
108.82,6.05
109.34,4.55
109.86,3.44
110.38,3.38
110.90,4.16
111.42,5.16
111.94,5.57
112.46,5.42
112.98,5.27
113.51,5.13
114.03,5.55
114.55,5.83
115.07,5.41
115.59,4.58
116.11,3.79
116.63,3.24
117.15,2.94
117.67,2.68
118.19,2.61
118.72,3.07
119.24,3.60
119.76,3.68
120.28,3.43
120.80,3.10
121.32,2.82
121.84,2.80
122.36,3.07
122.88,3.14
123.41,2.92
123.93,2.71
124.45,2.27
124.97,2.57
125.49,3.50
126.01,4.35
126.53,4.58
127.05,4.38
127.57,4.17
128.09,3.96
128.62,3.66
129.14,3.45
129.66,3.06
130.18,2.33
130.70,1.97
131.22,2.22
131.74,2.42
132.26,2.58
132.78,3.03
133.31,3.30
133.83,3.13
134.35,2.95
134.87,2.45
135.39,2.44
135.91,2.95
136.43,3.16
136.95,1.98
137.47,-0.28
137.99,-1.88
138.52,-1.70
139.04,-0.50
139.56,0.62
140.08,1.25
140.60,1.33
141.12,1.26
141.64,1.72
142.16,2.61
142.68,3.37
143.21,3.86
143.73,3.78
144.25,2.67
144.77,1.92
145.29,1.17
145.81,0.58
146.33,0.78
146.85,0.51
147.37,-0.10
147.89,0.42
148.42,2.07
148.94,3.53
149.46,4.26
149.98,4.54
150.50,4.68
151.02,4.82
151.54,4.70
152.06,4.06
152.58,2.79
153.11,0.98
153.63,-0.50
154.15,-0.79
154.67,-0.21
155.19,0.42
155.71,0.67
156.23,0.93
156.75,1.46
157.27,1.67
157.79,1.40
158.32,1.24
158.84,1.40
159.36,1.87
159.88,3.21
160.40,5.06
160.92,5.96
161.44,5.79
161.96,5.62
162.48,6.02
163.01,7.15
163.53,8.65
164.05,9.52
164.57,9.68
165.09,10.12
165.61,11.27
166.13,12.12
166.65,12.96
167.17,14.77
167.69,16.04
168.22,16.71
168.74,17.57
169.26,18.79
169.78,19.44
170.30,19.32
170.82,20.08
171.34,23.27
171.86,28.12
172.38,33.01
172.91,37.55
173.43,41.65
173.95,44.29
174.47,44.41
174.99,41.79
175.51,37.38
176.03,33.24
176.55,30.91
177.07,30.37
177.59,29.83
178.12,28.15
178.64,25.18
179.16,21.86
179.68,18.66
180.20,15.36
180.72,12.63
181.24,11.24
181.76,10.91
182.28,10.88
182.81,10.63
183.33,10.07
183.85,9.32
184.37,8.61
184.89,8.32
185.41,8.53
185.93,9.02
186.45,9.27
186.97,9.03
187.49,9.27
188.02,10.06
188.54,10.85
189.06,12.49
189.58,12.55
190.10,11.75
190.62,11.96
191.14,13.60
191.66,15.42
192.18,16.03
192.71,15.42
193.23,14.80
193.75,14.69
194.27,14.56
194.79,14.33
195.31,14.41
195.83,14.69
196.35,14.78
196.87,14.75
197.39,15.06
197.92,15.89
198.44,16.62
198.96,16.65
199.48,16.67
200.00,16.42
201.00,16.62
201.59,17.22
202.17,17.62
202.76,17.75
203.34,17.83
203.93,18.11
204.51,19.00
205.10,20.14
205.69,20.11
206.27,18.51
206.86,17.06
207.44,17.34
208.03,18.75
208.62,19.58
209.20,19.19
209.79,18.12
210.37,17.11
210.96,16.76
211.54,16.40
212.13,15.65
212.72,14.43
213.30,12.92
213.89,11.65
214.47,11.11
215.06,11.31
215.64,11.71
216.23,12.15
216.82,13.20
217.40,14.59
217.99,15.06
218.57,14.42
219.16,13.64
219.75,13.15
220.33,12.87
220.92,12.76
221.50,12.65
222.09,12.42
222.67,12.03
223.26,11.66
223.85,11.29
224.43,10.45
225.02,10.29
225.60,10.98
226.19,11.78
226.78,12.56
227.36,13.93
227.95,15.65
228.53,16.99
229.12,18.09
229.70,19.04
230.29,19.49
230.88,19.66
231.46,20.16
232.05,21.34
232.63,23.13
233.22,24.59
233.80,24.46
234.39,22.98
234.98,21.63
235.56,21.77
236.15,21.90
236.73,24.40
237.32,28.07
237.91,30.99
238.49,33.04
239.08,35.24
239.66,36.88
240.25,37.32
240.83,38.58
241.42,42.16
242.01,46.57
242.59,49.94
243.18,51.85
243.76,52.66
244.35,52.91
244.93,53.26
245.52,54.96
246.11,59.02
246.69,64.35
247.28,66.58
247.86,68.82
248.45,72.02
249.04,74.96
249.62,77.71
250.21,79.29
250.79,79.35
251.38,78.89
251.96,79.68
252.55,83.28
253.14,90.64
253.72,102.07
254.31,116.64
254.89,131.66
255.48,144.05
256.07,151.91
256.65,154.52
257.24,152.64
257.82,148.17
258.41,142.75
258.99,137.80
259.58,136.42
260.17,135.05
260.75,136.00
261.34,141.49
261.92,151.95
262.51,168.45
263.09,192.88
263.68,226.56
264.27,269.81
264.85,321.66
265.44,378.16
266.02,433.58
266.61,484.92
267.20,533.67
267.78,583.38
268.37,635.62
268.95,686.62
269.54,728.47
270.12,756.34
270.71,774.52
271.30,796.05
271.88,817.57
272.47,839.09
273.05,921.30
273.64,1052.50
274.22,1229.48
274.81,1436.48
275.40,1652.06
275.98,1858.94
276.57,2052.08
277.15,2239.75
277.74,2436.06
278.33,2656.61
278.91,2926.15
279.50,3287.83
280.08,3797.34
280.67,4502.62
281.25,5448.90
281.84,6769.31
282.43,8833.17
283.01,12221.42
283.60,14739.69
284.18,17257.96
284.77,23308.17
285.36,28610.29
285.94,31099.34
286.53,29713.61
287.11,25105.42
287.70,19105.98
288.28,13467.46
288.87,9057.43
289.46,5947.87
290.04,3871.43
290.63,2527.89
291.21,1683.96
291.80,1176.14
292.38,888.81
292.97,739.20
293.56,670.23
294.14,644.68
294.73,639.06
295.31,637.57
295.90,633.09
296.49,628.60
297.07,604.52
297.66,562.67
298.24,505.95
298.83,442.21
299.41,380.59
300.00,326.66
301.00,281.26
301.70,243.46
302.39,213.13
303.09,190.01
303.79,172.76
304.49,159.84
305.18,150.05
305.88,142.70
306.58,136.98
307.27,131.15
307.97,123.93
308.67,115.99
309.37,108.37
310.06,104.99
310.76,101.62
311.46,96.57
312.15,93.62
312.85,92.32
313.55,92.80
314.25,97.41
314.94,110.80
315.64,136.33
316.34,170.82
317.04,203.24
317.73,219.63
318.43,211.58
319.13,182.04
319.82,143.08
320.52,108.29
321.22,85.86
321.92,76.35
322.61,74.94
323.31,75.82
324.01,74.46
324.70,71.47
325.40,68.49
326.10,58.96
326.80,49.05
327.49,40.27
328.19,32.35
328.89,25.94
329.58,21.85
330.28,18.96
330.98,15.74
331.68,12.57
332.37,10.67
333.07,10.00
333.77,9.86
334.46,10.44
335.16,12.11
335.86,14.14
336.56,15.20
337.25,15.28
337.95,15.61
338.65,16.02
339.35,16.44
340.04,16.97
340.74,16.63
341.44,14.99
342.13,12.55
342.83,10.99
343.53,10.77
344.23,10.38
344.92,8.81
345.62,7.08
346.32,6.33
347.01,6.12
347.71,5.83
348.41,5.95
349.11,6.89
349.80,7.83
350.50,7.62
351.20,6.09
351.89,4.28
352.59,3.42
353.29,3.58
353.99,3.73
354.68,4.62
355.38,5.59
356.08,6.30
356.77,6.15
357.47,4.84
358.17,3.25
358.87,2.84
359.56,3.69
360.26,4.33
360.96,3.90
361.65,3.25
362.35,3.64
363.05,5.12
363.75,6.53
364.44,6.87
365.14,6.04
365.84,4.67
366.54,3.86
367.23,4.11
367.93,4.37
368.63,4.64
369.32,4.76
370.02,4.87
370.72,5.28
371.42,5.37
372.11,4.84
372.81,4.51
373.51,4.81
374.20,4.85
374.90,4.15
375.60,3.54
376.30,3.78
376.99,4.26
377.69,4.21
378.39,3.96
379.08,3.92
379.78,3.84
380.48,3.70
381.18,3.67
381.87,3.68
382.57,3.70
383.27,3.77
383.96,3.87
384.66,3.71
385.36,2.91
386.06,1.46
386.75,0.40
387.45,1.09
388.15,3.34
388.85,5.43
389.54,6.01
390.24,5.13
390.94,3.91
391.63,3.63
392.33,4.62
393.03,5.83
393.73,6.04
394.42,4.99
395.12,3.48
395.82,2.41
396.51,2.30
397.21,2.18
397.91,2.57
398.61,3.04
399.30,3.12
400.00,2.96
401.00,3.24
401.72,3.83
402.45,3.52
403.17,2.04
403.89,0.63
404.61,0.41
405.34,1.61
406.06,3.25
406.78,3.72
407.50,3.08
408.23,2.71
408.95,2.63
409.67,2.02
410.39,1.14
411.12,0.78
411.84,0.87
412.56,0.96
413.28,1.19
414.01,1.41
414.73,1.94
415.45,2.89
416.18,3.96
416.90,4.66
417.62,4.64
418.34,3.91
419.07,3.03
419.79,2.92
420.51,3.86
421.23,5.14
421.96,6.08
422.68,6.55
423.40,6.50
424.12,5.88
424.85,4.99
425.57,4.64
426.29,5.34
427.01,5.76
427.74,6.17
428.46,5.80
429.18,4.77
429.91,4.94
430.63,6.47
431.35,7.34
432.07,6.47
432.80,5.20
433.52,5.20
434.24,6.58
434.96,8.39
435.69,9.62
436.41,9.44
437.13,7.61
437.85,5.23
438.58,3.80
439.30,3.64
440.02,4.11
440.74,4.28
441.47,3.94
442.19,3.61
442.91,2.72
443.64,2.67
444.36,3.37
445.08,4.11
445.80,4.90
446.53,5.98
447.25,6.84
447.97,6.97
448.69,6.40
449.42,5.28
450.14,3.90
450.86,2.93
451.58,2.57
452.31,2.61
453.03,2.93
453.75,3.23
454.47,3.12
455.20,2.82
455.92,2.73
456.64,2.78
457.36,2.82
458.09,2.87
458.81,2.81
459.53,2.54
460.26,1.74
460.98,1.01
461.70,2.01
462.42,4.59
463.15,6.01
463.87,4.90
464.59,2.93
465.31,1.79
466.04,1.54
466.76,1.96
467.48,3.02
468.20,4.18
468.93,4.71
469.65,4.62
470.37,4.56
471.09,4.99
471.82,5.27
472.54,5.54
473.26,5.51
473.99,5.07
474.71,4.90
475.43,4.85
476.15,4.13
476.88,2.87
477.60,2.34
478.32,3.10
479.04,4.13
479.77,4.26
480.49,3.68
481.21,3.40
481.93,3.30
482.66,2.63
483.38,1.97
484.10,2.04
484.82,1.94
485.55,1.29
486.27,1.19
486.99,1.08
487.72,1.69
488.44,2.52
489.16,3.19
489.88,3.57
490.61,3.90
491.33,4.63
492.05,5.22
492.77,4.91
493.50,4.46
494.22,4.79
494.94,5.08
495.66,4.36
496.39,3.35
497.11,3.22
497.83,3.86
498.55,4.39
499.28,4.35
500.00,3.57
501.00,2.30
502.01,1.85
503.02,1.41
504.03,1.42
505.04,2.16
506.05,3.39
507.06,4.75
508.07,5.24
509.08,4.19
510.09,2.53
511.10,1.72
512.11,1.94
513.12,2.50
514.13,2.77
515.14,2.24
516.15,1.28
517.16,1.08
518.17,1.78
519.18,2.31
520.19,2.05
521.20,1.41
522.21,1.05
523.22,0.99
524.23,0.94
525.24,0.47
526.26,-0.41
527.27,-1.17
528.28,-1.84
529.29,-2.48
530.30,-2.25
531.31,-0.50
532.32,1.81
533.33,3.01
534.34,2.59
535.35,1.20
536.36,-0.44
537.37,-1.75
538.38,-2.39
539.39,-2.21
540.40,-0.99
541.41,0.62
542.42,1.12
543.43,0.06
544.44,-0.67
545.45,-1.41
546.46,-2.07
547.47,-2.14
548.48,-2.80
549.49,-3.86
550.50,-3.83
551.51,-2.30
552.52,-0.58
553.53,-0.16
554.54,-1.25
555.55,-2.79
556.56,-3.58
557.57,-3.27
558.58,-2.35
559.59,-1.60
560.60,-1.00
561.61,0.15
562.62,1.84
563.63,2.76
564.64,2.30
565.65,1.84
566.66,-0.13
567.67,-1.35
568.68,-1.24
569.69,-0.37
570.70,0.98
571.71,2.67
572.72,4.04
573.73,4.12
574.74,2.71
575.76,1.07
576.77,0.46
577.78,0.77
578.79,1.21
579.80,1.18
580.81,0.70
581.82,0.56
582.83,1.10
583.84,1.51
584.85,1.41
585.86,1.52
586.87,1.63
587.88,2.62
588.89,3.63
589.90,3.90
590.91,3.82
591.92,4.07
592.93,4.38
593.94,4.41
594.95,4.21
595.96,3.63
596.97,2.85
597.98,2.68
598.99,3.40
600.00,4.16
601.00,4.22
602.18,3.74
603.36,2.99
604.54,2.29
605.71,2.36
606.89,3.24
608.07,3.53
609.25,3.82
610.43,3.54
611.61,2.97
612.79,2.74
613.96,2.86
615.14,3.13
616.32,3.21
617.50,2.58
618.68,1.18
619.86,-0.01
621.04,0.00
622.21,0.83
623.39,1.57
624.57,2.05
625.75,2.50
626.93,2.74
628.11,2.42
629.29,2.00
630.46,2.21
631.64,2.47
632.82,2.74
634.00,3.00
635.18,3.35
636.36,4.02
637.54,4.42
638.71,4.11
639.89,3.11
641.07,1.67
642.25,0.50
643.43,0.59
644.61,2.14
645.79,3.81
646.96,4.27
648.14,3.86
649.32,3.41
650.50,2.63
651.68,1.34
652.86,0.55
654.04,0.98
655.21,2.02
656.39,2.41
657.57,2.80
658.75,3.28
659.93,3.42
661.11,3.01
662.29,2.42
663.46,2.19
664.64,2.19
665.82,1.84
667.00,1.23
668.18,1.44
669.36,3.12
670.54,5.26
671.71,6.39
672.89,6.58
674.07,6.76
675.25,6.98
676.43,6.70
677.61,6.15
678.79,6.15
679.96,7.00
681.14,7.65
682.32,8.29
683.50,9.50
684.68,10.22
685.86,10.23
687.04,9.40
688.21,7.95
689.39,6.73
690.57,6.50
691.75,7.14
692.93,8.15
694.11,9.14
695.29,9.60
696.46,9.28
697.64,8.60
698.82,8.23
700.00,8.20
701.00,8.35
702.98,8.74
704.96,9.18
706.94,9.25
708.92,9.32
710.90,9.34
712.88,9.54
714.86,9.57
716.84,8.99
718.82,8.13
720.80,7.62
722.78,7.73
724.76,8.40
726.74,9.40
728.72,10.26
730.70,10.02
732.68,8.06
734.66,5.52
736.64,4.62
738.62,5.79
740.60,7.32
742.58,7.84
744.56,7.57
746.54,7.01
748.52,6.66
750.50,6.32
752.48,6.02
754.46,6.19
756.44,6.07
758.42,5.69
760.40,5.88
762.38,6.48
764.36,6.96
766.34,7.37
768.32,7.55
770.30,7.55
772.28,7.55
774.26,6.93
776.24,5.57
778.22,4.61
780.20,4.40
782.18,4.32
784.16,4.41
786.14,4.79
788.12,5.16
790.10,5.43
792.08,5.71
794.06,6.74
796.04,7.86
798.02,8.18
800.00,7.11
801.00,5.27
803.36,3.83
805.71,3.27
808.07,3.44
810.43,4.28
812.79,5.57
815.14,6.64
817.50,6.88
819.86,6.24
822.21,5.63
824.57,5.75
826.93,5.97
829.29,5.71
831.64,5.36
834.00,5.14
836.36,5.10
838.71,5.06
841.07,5.31
843.43,5.35
845.79,4.31
848.14,2.81
850.50,2.52
852.86,3.72
855.21,4.92
857.57,4.94
859.93,3.66
862.29,1.66
864.64,0.23
867.00,0.37
869.36,1.56
871.71,2.37
874.07,1.91
876.43,0.70
878.79,-0.00
881.14,-0.06
883.50,-0.09
885.86,-0.11
888.21,0.06
890.57,1.08
892.93,2.65
895.29,3.80
897.64,3.94
900.00,3.39
901.00,2.73
904.67,2.25
908.33,2.11
912.00,2.37
915.67,2.64
919.33,2.50
923.00,1.92
926.67,1.01
930.33,0.36
934.00,0.47
937.67,0.90
941.33,1.47
945.00,2.42
948.67,2.70
952.33,2.98
956.00,2.36
959.67,1.40
963.33,1.29
967.00,2.00
970.67,2.82
974.33,3.32
978.00,3.50
981.67,3.50
985.33,2.98
989.00,1.34
992.67,-1.04
996.33,-2.82
1000.00,-3.21
1001.00,-2.47
1006.10,-1.22
1011.21,0.01
1016.31,0.65
1021.41,0.53
1026.51,0.10
1031.62,-0.01
1036.72,-0.13
1041.82,0.20
1046.92,1.04
1052.03,1.38
1057.13,0.56
1062.23,-0.59
1067.33,-1.04
1072.44,-0.87
1077.54,-0.55
1082.64,-0.35
1087.74,-0.16
1092.85,0.29
1097.95,1.05
1103.05,1.80
1108.15,2.18
1113.26,2.26
1118.36,2.43
1123.46,2.52
1128.56,1.93
1133.67,1.47
1138.77,1.01
1143.87,0.85
1148.97,1.40
1154.08,1.41
1159.18,0.26
1164.28,-1.42
1169.38,-2.29
1174.49,-1.68
1179.59,-0.32
1184.69,0.88
1189.79,1.91
1194.90,2.58
1200.00,2.32
1201.00,1.38
1210.06,0.69
1219.12,0.55
1228.18,0.74
1237.24,1.35
1246.30,2.18
1255.36,2.49
1264.42,2.39
1273.48,2.29
1282.55,2.02
1291.61,1.72
1300.67,1.69
1309.73,1.94
1318.79,1.46
1327.85,0.25
1336.91,-0.08
1345.97,0.85
1355.03,1.77
1364.09,2.22
1373.15,2.80
1382.21,3.69
1391.27,4.52
1400.33,5.00
1409.39,4.89
1418.45,3.95
1427.52,2.72
1436.58,2.22
1445.64,2.58
1454.70,2.76
1463.76,2.94
1472.82,2.67
1481.88,2.28
1490.94,2.69
1500.00,3.38
1501.00,3.03
1510.24,1.91
1519.48,1.14
1528.72,0.98
1537.96,1.17
1547.20,1.59
1556.44,2.28
1565.69,3.28
1574.93,4.12
1584.17,3.81
1593.41,2.31
1602.65,1.06
1611.89,0.97
1621.13,1.44
1630.37,1.61
1639.61,1.40
1648.85,1.20
1658.09,0.65
1667.33,0.81
1676.57,1.81
1685.81,2.67
1695.06,2.72
1704.30,2.59
1713.54,2.64
1722.78,2.09
1732.02,1.17
1741.26,1.23
1750.50,2.14
1759.74,2.26
1768.98,1.31
1778.22,0.78
1787.46,1.32
1796.70,1.78
1805.94,1.29
1815.19,0.50
1824.43,0.41
1833.67,0.32
1842.91,1.04
1852.15,2.03
1861.39,2.51
1870.63,2.93
1879.87,4.12
1889.11,5.53
1898.35,6.23
1907.59,6.32
1916.83,6.01
1926.07,5.10
1935.31,4.07
1944.56,4.12
1953.80,5.51
1963.04,6.82
1972.28,6.84
1981.52,6.09
1990.76,5.42
2000.00,4.73
2001.00,4.12
2018.22,4.14
2035.45,4.16
2052.67,4.74
2069.90,5.07
2087.12,4.79
2104.34,4.43
2121.57,4.71
2138.79,5.32
2156.02,5.38
2173.24,4.99
2190.47,4.73
2207.69,4.59
2224.91,4.40
2242.14,4.09
2259.36,3.68
2276.59,3.44
2293.81,3.60
2311.03,4.37
2328.26,5.79
2345.48,7.15
2362.71,7.65
2379.93,7.51
2397.16,7.38
2414.38,6.76
2431.60,5.85
2448.83,4.85
2466.05,4.29
2483.28,4.47
2500.50,5.01
2517.72,5.32
2534.95,5.60
2552.17,6.08
2569.40,6.21
2586.62,5.77
2603.84,5.47
2621.07,5.68
2638.29,6.04
2655.52,6.14
2672.74,5.93
2689.97,5.82
2707.19,6.10
2724.41,6.10
2741.64,6.10
2758.86,5.11
2776.09,3.67
2793.31,2.96
2810.53,3.35
2827.76,4.38
2844.98,5.60
2862.21,6.75
2879.43,7.61
2896.66,7.99
2913.88,7.69
2931.10,6.80
2948.33,5.99
2965.55,5.97
2982.78,6.77
3000.00,7.58
3001.00,7.44
3025.99,6.52
3050.98,6.14
3075.98,6.88
3100.97,7.38
3125.96,7.89
3150.95,8.38
3175.94,8.45
3200.93,8.83
3225.93,9.61
3250.92,9.91
3275.91,9.44
3300.90,9.31
3325.89,9.92
3350.88,9.89
3375.87,8.50
3400.87,7.03
3425.86,6.50
3450.85,6.25
3475.84,5.69
3500.83,5.30
3525.82,5.47
3550.82,6.00
3575.81,6.61
3600.80,7.11
3625.79,7.26
3650.78,7.42
3675.77,7.37
3700.77,6.83
3725.76,6.42
3750.75,7.00
3775.74,8.18
3800.73,8.81
3825.73,8.29
3850.72,6.84
3875.71,4.86
3900.70,2.87
3925.69,1.78
3950.68,2.15
3975.68,3.26
4000.67,3.87
4025.66,4.07
4050.65,4.90
4075.64,6.09
4100.63,6.17
4125.62,5.06
4150.62,4.67
4175.61,4.28
4200.60,4.39
4225.59,4.51
4250.58,4.17
4275.58,3.78
4300.57,3.70
4325.56,3.76
4350.55,3.67
4375.54,3.45
4400.53,3.32
4425.52,3.34
4450.52,3.38
4475.51,3.32
4500.50,2.88
4525.49,2.01
4550.48,1.35
4575.48,1.52
4600.47,2.32
4625.46,3.40
4650.45,3.92
4675.44,4.45
4700.43,4.82
4725.42,4.16
4750.42,2.96
4775.41,2.16
4800.40,2.30
4825.39,3.02
4850.38,3.73
4875.37,4.26
4900.37,4.60
4925.36,4.58
4950.35,4.37
4975.34,4.54
5000.33,4.99
5025.33,4.63
5050.32,3.16
5075.31,1.99
5100.30,2.37
5125.29,3.55
5150.28,4.16
5175.27,4.23
5200.27,4.30
5225.26,4.82
5250.25,5.66
5275.24,6.08
5300.23,5.58
5325.23,4.72
5350.22,4.66
5375.21,5.41
5400.20,5.80
5425.19,5.18
5450.18,4.08
5475.17,3.55
5500.17,3.94
5525.16,4.75
5550.15,5.77
5575.14,7.10
5600.13,8.47
5625.12,10.61
5650.12,16.99
5675.11,34.27
5700.10,53.76
5725.09,73.25
5750.08,149.58
5775.08,282.31
5800.07,489.25
