Size (bp),Intensity
0.58,1571.12
1.00,1323.79
2.00,891.18
2.42,495.15
2.84,248.17
3.26,134.56
3.68,93.53
4.10,81.28
4.52,78.40
4.94,77.79
5.36,77.17
5.79,74.61
6.21,70.50
6.63,65.31
7.05,59.25
7.47,52.42
7.89,44.86
8.31,36.77
8.73,28.86
9.15,22.18
9.57,17.72
9.99,15.94
10.41,15.97
10.83,16.33
11.25,16.24
11.67,15.48
12.09,13.71
12.52,11.20
12.94,9.29
13.36,8.74
13.78,8.76
14.20,8.78
14.62,8.67
15.04,8.15
15.46,6.93
15.88,5.47
16.30,4.64
16.72,4.47
17.14,4.37
17.56,4.25
17.98,4.63
18.40,5.92
18.82,7.64
19.24,8.64
19.67,8.50
20.09,7.99
20.51,7.71
20.93,7.41
21.35,6.91
21.77,6.38
22.19,6.06
22.61,5.74
23.03,4.76
23.45,3.76
23.87,3.41
24.29,3.46
24.71,2.73
25.13,1.32
25.55,1.17
25.97,2.81
26.39,4.18
26.82,4.20
27.24,4.11
27.66,4.39
28.08,4.20
28.50,3.84
28.92,4.38
29.34,5.70
29.76,6.86
30.18,6.80
30.60,5.82
31.02,4.83
31.44,1.88
31.86,0.32
32.28,0.93
32.70,1.90
33.12,2.07
33.55,2.13
33.97,2.30
34.39,2.18
34.81,2.34
35.23,3.71
35.65,5.85
36.07,7.12
36.49,6.62
36.91,5.15
37.33,4.22
37.75,4.44
38.17,5.00
38.59,5.00
39.01,4.45
39.43,4.05
39.85,3.66
40.27,3.19
40.70,3.72
41.12,4.69
41.54,4.89
41.96,4.38
42.38,3.99
42.80,3.74
43.22,3.29
43.64,2.94
44.06,3.08
44.48,3.87
44.90,5.48
45.32,7.49
45.74,8.62
46.16,7.82
46.58,5.60
47.00,3.85
47.42,4.17
47.85,5.09
48.27,6.01
48.69,7.23
49.11,6.84
49.53,5.98
49.95,5.83
50.37,6.27
50.79,6.78
51.21,7.30
51.63,7.91
52.05,8.56
52.47,9.41
52.89,10.41
53.31,10.75
53.73,10.16
54.15,9.68
54.58,9.99
55.00,10.87
55.42,12.16
55.84,13.49
56.26,13.85
56.68,13.31
57.10,12.77
57.52,10.84
57.94,8.98
58.36,7.89
58.78,7.71
59.20,8.03
59.62,7.93
60.04,6.78
60.46,5.25
60.88,5.19
61.30,7.25
61.73,9.28
62.15,8.80
62.57,6.52
62.99,5.22
63.41,6.05
63.83,7.89
64.25,9.29
64.67,9.25
65.09,8.33
65.51,7.40
65.93,4.66
66.35,2.88
66.77,2.54
67.19,2.77
67.61,3.13
68.03,3.49
68.45,3.54
68.88,3.48
69.30,4.00
69.72,5.06
70.14,5.64
70.56,4.98
70.98,3.69
71.40,2.73
71.82,2.06
72.24,1.59
72.66,2.38
73.08,4.64
73.50,6.72
73.92,7.03
74.34,7.33
74.76,6.89
75.18,6.27
75.61,5.82
76.03,5.57
76.45,5.65
76.87,6.30
77.29,7.29
77.71,7.55
78.13,6.05
78.55,3.09
78.97,0.60
79.39,0.28
79.81,1.65
80.23,3.37
80.65,4.98
81.07,6.29
81.49,6.79
81.91,6.59
82.33,6.48
82.76,6.37
83.18,6.75
83.60,8.33
84.02,10.91
84.44,13.16
84.86,14.47
85.28,15.60
85.70,17.24
86.12,19.11
86.54,20.07
86.96,19.15
87.38,16.91
87.80,15.19
88.22,14.94
88.64,15.16
89.06,14.85
89.48,14.46
89.91,14.67
90.33,15.40
90.75,15.92
91.17,16.45
91.59,17.71
92.01,18.86
92.43,19.47
92.85,19.56
93.27,19.45
93.69,19.44
94.11,19.67
94.53,20.17
94.95,20.77
95.37,21.00
95.79,20.63
96.21,20.14
96.64,20.33
97.06,21.43
97.48,22.99
97.90,24.44
98.32,25.62
98.74,26.85
99.16,28.85
99.58,30.77
100.00,32.70
101.00,39.46
101.52,48.77
102.04,57.81
102.56,62.43
103.08,60.18
103.61,52.92
104.13,45.51
104.65,40.98
105.17,38.79
105.69,37.80
106.21,37.81
106.73,39.03
107.25,42.23
107.77,48.91
108.29,59.95
108.82,74.58
109.34,90.50
109.86,105.38
110.38,111.67
110.90,117.96
111.42,127.54
111.94,132.86
112.46,132.60
112.98,126.77
113.51,117.34
114.03,107.01
114.55,97.27
115.07,88.12
115.59,79.54
116.11,71.70
116.63,64.42
117.15,58.42
117.67,55.54
118.19,56.20
118.72,58.29
119.24,59.83
119.76,60.26
120.28,58.94
120.80,55.36
121.32,53.31
121.84,51.27
122.36,49.22
122.88,49.85
123.41,52.03
123.93,54.16
124.45,54.94
124.97,54.43
125.49,53.35
126.01,52.27
126.53,52.35
127.05,54.54
127.57,57.59
128.09,58.79
128.62,56.82
129.14,53.18
129.66,50.26
130.18,48.79
130.70,48.56
131.22,49.61
131.74,50.43
132.26,51.25
132.78,51.97
133.31,51.47
133.83,51.09
134.35,51.64
134.87,52.70
135.39,54.05
135.91,55.67
136.43,57.03
136.95,57.32
137.47,56.19
137.99,54.05
138.52,51.63
139.04,49.40
139.56,47.52
140.08,46.35
140.60,46.18
141.12,46.85
141.64,47.96
142.16,48.96
142.68,49.12
143.21,49.28
143.73,48.78
144.25,48.39
144.77,49.95
145.29,54.58
145.81,61.01
146.33,66.15
146.85,67.28
147.37,64.34
147.89,59.81
148.42,55.61
148.94,51.64
149.46,47.77
149.98,44.78
150.50,43.14
151.02,42.25
151.54,41.32
152.06,40.74
152.58,42.37
153.11,44.86
153.63,47.35
154.15,53.84
154.67,58.43
155.19,59.56
155.71,57.45
156.23,52.90
156.75,47.79
157.27,44.43
157.79,43.53
158.32,44.06
158.84,44.70
159.36,44.76
159.88,44.81
160.40,46.14
160.92,48.72
161.44,50.81
161.96,51.67
162.48,52.74
163.01,55.38
163.53,57.64
164.05,59.89
164.57,67.30
165.09,80.32
165.61,101.47
166.13,129.41
166.65,158.29
167.17,183.26
167.69,204.85
168.22,224.85
168.74,238.98
169.26,237.23
169.78,213.26
170.30,172.46
170.82,128.68
171.34,93.12
171.86,68.97
172.38,54.89
172.91,48.42
173.43,46.69
173.95,47.45
174.47,48.25
174.99,49.05
175.51,49.44
176.03,47.45
176.55,44.27
177.07,42.05
177.59,41.61
178.12,41.86
178.64,41.29
179.16,39.66
179.68,37.91
180.20,36.96
180.72,37.13
181.24,37.79
181.76,38.07
182.28,37.90
182.81,37.34
183.33,36.71
183.85,37.09
184.37,38.20
184.89,38.12
185.41,38.04
185.93,36.34
186.45,35.45
186.97,36.78
187.49,38.72
188.02,39.14
188.54,38.19
189.06,37.58
189.58,38.39
190.10,40.00
190.62,41.02
191.14,41.39
191.66,42.43
192.18,44.35
192.71,46.02
193.23,47.01
193.75,47.63
194.27,47.68
194.79,46.90
195.31,45.66
195.83,44.95
196.35,44.23
196.87,42.34
197.39,40.29
197.92,39.65
198.44,41.25
198.96,43.61
199.48,45.26
200.00,46.26
201.00,46.76
201.59,46.64
202.17,46.20
202.76,46.05
203.34,46.38
203.93,46.80
204.51,47.10
205.10,47.60
205.69,48.22
206.27,48.58
206.86,49.11
207.44,49.77
208.03,50.43
208.62,52.51
209.20,55.40
209.79,59.05
210.37,62.90
210.96,66.62
211.54,71.43
212.13,81.93
212.72,105.59
213.30,145.90
213.89,194.98
214.47,235.48
215.06,251.59
215.64,238.84
216.23,204.76
216.82,162.59
217.40,124.41
217.99,96.66
218.57,79.63
219.16,70.83
219.75,69.64
220.33,68.46
220.92,72.10
221.50,82.30
222.09,99.47
222.67,121.24
223.26,140.96
223.85,150.99
224.43,148.29
225.02,136.35
225.60,121.88
226.19,109.63
226.78,99.60
227.36,88.98
227.95,76.84
228.53,65.39
229.12,56.46
229.70,49.93
230.29,45.58
230.88,43.50
231.46,43.33
232.05,43.17
232.63,43.92
233.22,45.22
233.80,46.06
234.39,45.92
234.98,46.22
235.56,49.24
236.15,56.25
236.73,67.13
237.32,79.10
237.91,86.69
238.49,86.16
239.08,78.87
239.66,69.01
240.25,59.98
240.83,53.20
241.42,48.82
242.01,46.43
242.59,45.12
243.18,44.61
243.76,44.10
244.35,43.54
244.93,43.81
245.52,44.47
246.11,45.09
246.69,46.01
247.28,47.34
247.86,48.62
248.45,49.69
249.04,50.66
249.62,51.27
250.21,51.33
250.79,51.74
251.38,53.58
251.96,56.61
252.55,59.64
253.14,61.75
253.72,62.77
254.31,63.21
254.89,63.58
255.48,63.83
256.07,64.07
256.65,64.79
257.24,65.57
257.82,66.09
258.41,66.40
258.99,66.54
259.58,66.42
260.17,66.26
260.75,66.50
261.34,67.20
261.92,67.76
262.51,67.86
263.09,68.23
263.68,69.33
264.27,70.61
264.85,72.03
265.44,74.38
266.02,77.81
266.61,81.42
267.20,82.96
267.78,84.50
268.37,87.52
268.95,91.55
269.54,97.46
270.12,105.05
270.71,112.29
271.30,116.84
271.88,118.70
272.47,119.21
273.05,119.20
273.64,119.67
274.22,121.73
274.81,125.54
275.40,130.76
275.98,136.40
276.57,140.39
277.15,141.48
277.74,140.97
278.33,141.08
278.91,143.17
279.50,145.56
280.08,147.95
280.67,155.56
281.25,164.81
281.84,173.74
282.43,181.66
283.01,190.61
283.60,204.57
284.18,226.44
284.77,255.58
285.36,289.26
285.94,326.46
286.53,369.90
287.11,425.12
287.70,496.77
288.28,583.93
288.87,679.04
289.46,771.57
290.04,852.18
290.63,913.79
291.21,931.53
291.80,949.26
292.38,949.51
292.97,907.34
293.56,825.20
294.14,718.80
294.73,611.61
295.31,523.06
295.90,460.03
296.49,419.61
297.07,397.22
297.66,389.38
298.24,392.13
298.83,402.04
299.41,418.99
300.00,446.07
301.00,487.05
301.70,544.15
302.39,616.96
303.09,706.07
303.79,818.84
304.49,893.00
305.18,967.17
305.88,1157.60
306.58,1385.23
307.27,1636.11
307.97,1897.75
308.67,2181.25
309.37,2567.94
310.06,3279.05
310.76,4680.34
311.46,7082.34
312.15,10376.59
312.85,13820.69
313.55,16270.80
314.25,16804.22
314.94,15283.24
315.64,12382.18
316.34,9085.19
317.04,6149.05
317.73,3911.74
318.43,3151.13
319.13,2390.52
319.82,1447.02
320.52,905.73
321.22,615.59
321.92,469.66
322.61,400.70
323.31,370.24
324.01,358.59
324.70,355.21
325.40,353.07
326.10,347.64
326.80,336.39
327.49,317.95
328.19,292.48
328.89,262.30
329.58,231.69
330.28,205.34
330.98,185.44
331.68,170.85
332.37,165.23
333.07,159.61
333.77,150.49
334.46,142.75
335.16,136.71
335.86,132.99
336.56,130.63
337.25,127.93
337.95,124.77
338.65,121.91
339.35,119.23
340.04,116.27
340.74,113.15
341.44,110.10
342.13,107.12
342.83,103.78
343.53,99.59
344.23,94.93
344.92,91.15
345.62,89.04
346.32,87.64
347.01,86.59
347.71,85.55
348.41,83.09
349.11,81.73
349.80,81.92
350.50,83.03
351.20,84.71
351.89,86.92
352.59,88.99
353.29,89.33
353.99,86.97
354.68,83.05
355.38,79.79
356.08,77.68
356.77,75.52
357.47,72.66
358.17,69.29
358.87,65.85
359.56,63.31
360.26,62.32
360.96,62.27
361.65,62.21
362.35,62.06
363.05,62.15
363.75,62.97
364.44,63.78
365.14,63.67
365.84,63.02
366.54,63.17
367.23,64.75
367.93,66.31
368.63,65.69
369.32,62.89
370.02,60.02
370.72,58.33
371.42,57.65
372.11,57.69
372.81,58.15
373.51,58.12
374.20,56.79
374.90,54.38
375.60,53.20
376.30,52.02
376.99,50.48
377.69,49.32
378.39,47.67
379.08,45.59
379.78,44.20
380.48,43.76
381.18,43.09
381.87,41.64
382.57,40.34
383.27,39.70
383.96,38.91
384.66,37.39
385.36,35.78
386.06,34.72
386.75,34.05
387.45,33.67
388.15,33.72
388.85,33.72
389.54,33.46
390.24,33.19
390.94,32.60
391.63,32.68
392.33,33.27
393.03,33.34
393.73,32.15
394.42,30.43
395.12,29.56
395.82,29.87
396.51,30.54
397.21,30.79
397.91,30.71
398.61,30.76
399.30,30.89
400.00,30.84
401.00,30.65
401.72,30.31
402.45,29.59
403.17,28.63
403.89,28.43
404.61,28.24
405.34,28.94
406.06,29.85
406.78,29.89
407.50,29.50
408.23,29.64
408.95,30.33
409.67,31.29
410.39,32.66
411.12,34.05
411.84,34.30
412.56,33.15
413.28,31.79
414.01,31.32
414.73,31.40
415.45,30.76
416.18,28.90
416.90,27.06
417.62,26.47
418.34,26.51
419.07,26.46
419.79,26.40
420.51,26.64
421.23,27.58
421.96,28.64
422.68,28.89
423.40,27.63
424.12,25.42
424.85,23.88
425.57,23.47
426.29,23.25
427.01,22.60
427.74,21.69
428.46,20.88
429.18,20.55
429.91,20.85
430.63,21.40
431.35,21.76
432.07,21.62
432.80,21.23
433.52,21.44
434.24,21.65
434.96,22.99
435.69,23.68
436.41,23.07
437.13,22.64
437.85,23.25
438.58,24.08
439.30,24.94
440.02,26.41
440.74,27.78
441.47,27.81
442.19,26.47
442.91,24.70
443.64,23.61
444.36,23.77
445.08,24.68
445.80,25.33
446.53,25.35
447.25,24.79
447.97,23.90
448.69,23.59
449.42,23.29
450.14,22.96
450.86,22.12
451.58,20.84
452.31,20.03
453.03,19.71
453.75,19.48
454.47,19.95
455.20,21.92
455.92,24.72
456.64,26.94
457.36,27.87
458.09,27.56
458.81,26.73
459.53,26.59
460.26,27.38
460.98,28.16
461.70,28.55
462.42,28.78
463.15,28.62
463.87,28.46
464.59,27.19
465.31,25.94
466.04,25.90
466.76,26.62
467.48,26.74
468.20,26.15
468.93,25.85
469.65,26.20
470.37,26.48
471.09,25.99
471.82,24.73
472.54,23.26
473.26,22.40
473.99,22.67
474.71,23.75
475.43,24.83
476.15,25.34
476.88,25.12
477.60,24.33
478.32,23.91
479.04,23.48
479.77,23.41
480.49,24.45
481.21,25.61
481.93,25.47
482.66,24.18
483.38,23.07
484.10,22.83
484.82,22.91
485.55,22.65
486.27,22.30
486.99,22.18
487.72,21.80
488.44,21.16
489.16,20.96
489.88,21.10
490.61,20.92
491.33,20.59
492.05,20.90
492.77,21.48
493.50,22.06
494.22,23.33
494.94,23.78
495.66,23.42
496.39,22.87
497.11,22.14
497.83,20.88
498.55,19.58
499.28,19.22
500.00,19.91
501.00,21.00
502.01,22.14
503.02,23.02
504.03,22.90
505.04,21.49
506.05,19.68
507.06,18.74
508.07,18.93
509.08,19.27
510.09,19.24
511.10,19.21
512.11,19.13
513.12,19.10
514.13,18.76
515.14,18.04
516.15,17.14
517.16,16.70
518.17,17.40
519.18,18.72
520.19,19.51
521.20,19.55
522.21,19.31
523.22,19.06
524.23,18.67
525.24,18.28
526.26,18.22
527.27,18.36
528.28,18.24
529.29,17.82
530.30,17.90
531.31,18.47
532.32,19.04
533.33,20.24
534.34,20.01
535.35,18.46
536.36,16.98
537.37,16.13
538.38,15.67
539.39,15.71
540.40,16.18
541.41,16.12
542.42,15.32
543.43,14.89
544.44,15.36
545.45,16.14
546.46,16.69
547.47,16.75
548.48,16.42
549.49,16.53
550.50,17.50
551.51,18.01
552.52,18.52
553.53,18.83
554.54,18.69
555.55,18.80
556.56,19.33
557.57,19.68
558.58,19.44
559.59,19.02
560.60,19.05
561.61,20.01
562.62,21.56
563.63,22.34
564.64,21.53
565.65,20.01
566.66,19.25
567.67,19.65
568.68,20.45
569.69,20.98
570.70,21.87
571.71,23.62
572.72,24.40
573.73,25.17
574.74,25.98
575.76,27.06
576.77,28.30
577.78,28.27
578.79,26.77
579.80,24.96
580.81,23.61
581.82,22.41
582.83,20.97
583.84,20.05
584.85,20.21
585.86,20.18
586.87,18.80
587.88,17.18
588.89,16.54
589.90,16.24
590.91,15.48
591.92,14.39
592.93,13.78
593.94,13.18
594.95,12.11
595.96,11.47
596.97,11.42
597.98,12.15
598.99,13.30
600.00,13.84
601.00,13.81
602.18,14.36
603.36,15.81
604.54,17.19
605.71,17.42
606.89,15.99
608.07,13.35
609.25,11.13
610.43,10.61
611.61,11.71
612.79,13.35
613.96,14.26
615.14,14.15
616.32,13.93
617.50,13.71
618.68,13.35
619.86,13.40
621.04,14.43
622.21,16.15
623.39,17.15
624.57,16.51
625.75,14.54
626.93,12.00
628.11,9.84
629.29,9.06
630.46,9.64
631.64,10.70
632.82,11.77
634.00,13.00
635.18,14.39
636.36,15.24
637.54,14.77
638.71,13.24
639.89,12.59
641.07,11.94
642.25,11.66
643.43,11.88
644.61,12.15
645.79,12.44
646.96,12.23
648.14,11.15
649.32,10.20
650.50,10.60
651.68,12.03
652.86,12.92
654.04,12.68
655.21,12.20
656.39,12.28
657.57,12.79
658.75,13.31
659.93,13.51
661.11,12.89
662.29,11.23
663.46,10.38
664.64,9.53
665.82,8.92
667.00,9.03
668.18,8.69
669.36,7.78
670.54,7.21
671.71,7.65
672.89,8.86
674.07,9.58
675.25,8.91
676.43,8.04
677.61,8.63
678.79,10.37
679.96,12.09
681.14,13.51
682.32,14.06
683.50,12.60
684.68,9.71
685.86,7.57
687.04,6.95
688.21,6.83
689.39,6.72
690.57,6.31
691.75,6.17
692.93,6.70
694.11,8.13
695.29,9.80
696.46,10.44
697.64,10.14
698.82,10.05
700.00,10.24
701.00,9.89
702.98,8.68
704.96,7.27
706.94,6.87
708.92,7.63
710.90,8.48
712.88,8.63
714.86,8.35
716.84,8.29
718.82,8.56
720.80,8.82
722.78,9.37
724.76,8.96
726.74,7.92
728.72,7.54
730.70,7.90
732.68,7.64
734.66,6.48
736.64,5.83
738.62,6.28
740.60,6.77
742.58,6.39
744.56,5.67
746.54,5.58
748.52,6.47
750.50,7.94
752.48,8.79
754.46,8.02
756.44,6.51
758.42,6.13
760.40,6.71
762.38,7.29
764.36,8.55
766.34,8.95
768.32,9.12
770.30,9.96
772.28,11.17
774.26,11.92
776.24,12.01
778.22,11.46
780.20,10.40
782.18,9.47
784.16,9.15
786.14,9.53
788.12,10.36
790.10,10.84
792.08,10.30
794.06,9.03
796.04,7.95
798.02,7.66
800.00,7.96
801.00,8.25
803.36,9.68
805.71,11.50
808.07,12.77
810.43,12.47
812.79,10.63
815.14,8.65
817.50,7.65
819.86,7.32
822.21,7.27
824.57,7.70
826.93,8.45
829.29,9.12
831.64,9.70
834.00,10.28
836.36,10.67
838.71,10.78
841.07,10.70
843.43,10.31
845.79,9.66
848.14,9.41
850.50,9.17
852.86,8.72
855.21,7.80
857.57,6.72
859.93,6.16
862.29,6.30
864.64,6.86
867.00,7.49
869.36,8.10
871.71,8.46
874.07,8.27
876.43,8.04
878.79,8.32
881.14,8.91
883.50,9.60
885.86,10.15
888.21,9.82
890.57,8.46
892.93,7.25
895.29,7.23
897.64,7.21
900.00,7.75
901.00,7.42
904.67,6.12
908.33,5.14
912.00,5.50
915.67,6.98
919.33,8.25
923.00,8.39
926.67,8.14
930.33,8.27
934.00,8.00
937.67,6.61
941.33,5.18
945.00,5.07
948.67,5.71
952.33,5.55
956.00,4.35
959.67,3.32
963.33,3.41
967.00,3.51
970.67,4.59
974.33,5.59
978.00,6.04
981.67,5.90
985.33,5.11
989.00,3.86
992.67,2.87
996.33,2.37
1000.00,2.01
1001.00,2.20
1006.10,3.16
1011.21,3.97
1016.31,4.36
1021.41,5.06
1026.51,6.27
1031.62,7.17
1036.72,6.83
1041.82,5.36
1046.92,4.10
1052.03,3.97
1057.13,3.85
1062.23,3.97
1067.33,3.58
1072.44,2.85
1077.54,2.84
1082.64,3.91
1087.74,4.96
1092.85,5.07
1097.95,4.82
1103.05,4.90
1108.15,5.20
1113.26,5.57
1118.36,5.97
1123.46,6.03
1128.56,5.67
1133.67,5.28
1138.77,5.08
1143.87,5.13
1148.97,5.67
1154.08,6.08
1159.18,6.49
1164.28,6.85
1169.38,6.77
1174.49,6.93
1179.59,7.58
1184.69,8.24
1189.79,7.99
1194.90,6.83
1200.00,6.04
1201.00,6.05
1210.06,5.93
1219.12,5.43
1228.18,5.46
1237.24,6.37
1246.30,7.48
1255.36,8.15
1264.42,8.21
1273.48,7.51
1282.55,6.09
1291.61,4.73
1300.67,4.57
1309.73,4.40
1318.79,5.28
1327.85,6.73
1336.91,8.14
1345.97,9.02
1355.03,8.77
1364.09,7.35
1373.15,5.63
1382.21,4.71
1391.27,5.18
1400.33,6.54
1409.39,7.33
1418.45,6.74
1427.52,5.57
1436.58,4.80
1445.64,4.23
1454.70,3.73
1463.76,3.99
1472.82,5.12
1481.88,5.81
1490.94,6.49
1500.00,7.56
1501.00,8.01
1510.24,8.18
1519.48,8.40
1528.72,8.19
1537.96,7.23
1547.20,6.25
1556.44,6.06
1565.69,6.59
1574.93,7.09
1584.17,7.52
1593.41,8.47
1602.65,9.44
1611.89,9.13
1621.13,7.54
1630.37,5.86
1639.61,4.99
1648.85,5.05
1658.09,5.66
1667.33,5.91
1676.57,6.15
1685.81,6.37
1695.06,6.76
1704.30,7.28
1713.54,7.39
1722.78,6.90
1732.02,6.12
1741.26,5.39
1750.50,4.72
1759.74,4.03
1768.98,3.25
1778.22,2.41
1787.46,2.34
1796.70,3.77
1805.94,5.59
1815.19,6.20
1824.43,5.39
1833.67,4.05
1842.91,3.03
1852.15,2.95
1861.39,2.86
1870.63,3.77
1879.87,5.41
1889.11,6.77
1898.35,7.16
1907.59,6.82
1916.83,6.02
1926.07,4.90
1935.31,4.13
1944.56,4.28
1953.80,4.81
1963.04,5.43
1972.28,6.79
1981.52,8.59
1990.76,9.25
2000.00,8.17
2001.00,6.34
2018.22,4.94
2035.45,4.55
2052.67,4.79
2069.90,5.03
2087.12,5.74
2104.34,6.25
2121.57,6.53
2138.79,6.49
2156.02,6.22
2173.24,6.11
2190.47,6.29
2207.69,6.38
2224.91,5.96
2242.14,5.32
2259.36,5.07
2276.59,5.04
2293.81,5.01
2311.03,5.34
2328.26,5.92
2345.48,6.04
2362.71,5.50
2379.93,4.81
2397.16,4.50
2414.38,4.47
2431.60,4.45
2448.83,4.11
2466.05,3.09
2483.28,1.95
2500.50,1.91
2517.72,3.33
2534.95,5.22
2552.17,6.28
2569.40,6.10
2586.62,5.58
2603.84,5.69
2621.07,5.71
2638.29,4.54
2655.52,2.90
2672.74,2.16
2689.97,2.19
2707.19,2.09
2724.41,1.66
2741.64,1.12
2758.86,0.84
2776.09,0.56
2793.31,0.20
2810.53,0.07
2827.76,0.18
2844.98,1.09
2862.21,2.97
2879.43,4.61
2896.66,4.98
2913.88,4.51
2931.10,4.03
2948.33,4.00
2965.55,4.41
2982.78,4.74
3000.00,4.80
3001.00,4.78
3025.99,4.50
3050.98,3.91
3075.98,3.68
3100.97,4.18
3125.96,4.90
3150.95,5.22
3175.94,5.54
3200.93,6.30
3225.93,7.01
3250.92,6.95
3275.91,5.62
3300.90,3.81
3325.89,3.09
3350.88,3.85
3375.87,5.20
3400.87,6.03
3425.86,5.78
3450.85,5.29
3475.84,5.92
3500.83,7.23
3525.82,7.67
3550.82,6.97
3575.81,5.98
3600.80,5.06
3625.79,4.10
3650.78,3.64
3675.77,3.19
3700.77,2.60
3725.76,2.63
3750.75,3.32
3775.74,4.02
3800.73,4.01
3825.73,3.10
3850.72,1.84
3875.71,1.04
3900.70,0.57
3925.69,-0.41
3950.68,-1.40
3975.68,-1.24
4000.67,-0.47
4025.66,-0.07
4050.65,0.37
4075.64,1.29
4100.63,2.37
4125.62,3.39
4150.62,4.11
4175.61,4.09
4200.60,4.06
4225.59,3.59
4250.58,3.74
4275.58,4.49
4300.57,4.83
4325.56,4.61
4350.55,4.58
4375.54,4.93
4400.53,5.25
4425.52,5.05
4450.52,3.72
4475.51,1.55
4500.50,0.15
4525.49,0.73
4550.48,2.66
4575.48,4.54
4600.47,5.49
4625.46,5.06
4650.45,3.26
4675.44,2.32
4700.43,1.39
4725.42,1.01
4750.42,2.18
4775.41,3.59
4800.40,3.78
4825.39,2.28
4850.38,0.69
4875.37,1.08
4900.37,3.14
4925.36,4.97
4950.35,5.69
4975.34,5.85
