Size (bp),Intensity
0.58,1914.75
1.00,1576.45
2.00,1033.19
2.42,553.86
2.84,263.44
3.26,134.86
3.68,92.80
4.10,84.13
4.52,85.27
4.94,86.67
5.36,88.07
5.79,89.89
6.21,89.61
6.63,86.48
7.05,79.83
7.47,69.25
7.89,55.69
8.31,42.14
8.73,31.86
9.15,25.69
9.57,22.52
9.99,21.06
10.41,20.10
10.83,18.84
11.25,17.03
11.67,14.72
12.09,12.51
12.52,11.84
12.94,11.16
13.36,10.10
13.78,8.41
14.20,6.61
14.62,5.68
15.04,5.60
15.46,5.88
15.88,6.12
16.30,6.10
16.72,5.87
17.14,5.48
17.56,5.01
17.98,4.73
18.40,4.94
18.82,5.72
19.24,6.82
19.67,7.46
20.09,7.22
20.51,6.99
20.93,5.84
21.35,4.90
21.77,4.24
22.19,3.45
22.61,2.61
23.03,2.19
23.45,2.42
23.87,2.95
24.29,2.96
24.71,2.18
25.13,1.63
25.55,2.10
25.97,2.80
26.39,2.82
26.82,2.40
27.24,2.20
27.66,2.29
28.08,2.39
28.50,2.53
28.92,2.23
29.34,1.94
29.76,2.00
30.18,1.85
30.60,1.43
31.02,1.58
31.44,2.10
31.86,1.96
32.28,1.45
32.70,1.54
33.12,2.06
33.55,2.20
33.97,2.02
34.39,2.11
34.81,2.58
35.23,2.75
35.65,2.93
36.07,2.99
36.49,3.26
36.91,3.76
37.33,3.66
37.75,2.82
38.17,2.48
38.59,3.42
39.01,4.79
39.43,5.75
39.85,6.45
40.27,6.96
40.70,6.63
41.12,5.54
41.54,4.80
41.96,4.68
42.38,4.16
42.80,3.70
43.22,3.24
43.64,3.06
44.06,3.78
44.48,4.54
44.90,4.94
45.32,5.11
45.74,5.31
46.16,5.69
46.58,6.24
47.00,7.05
47.42,8.07
47.85,8.80
48.27,8.90
48.69,8.35
49.11,7.70
49.53,8.20
49.95,10.41
50.37,11.68
50.79,12.95
51.21,14.27
51.63,14.41
52.05,14.36
52.47,14.46
52.89,14.33
53.31,14.12
53.73,14.67
54.15,16.46
54.58,18.96
55.00,21.18
55.42,22.40
55.84,22.30
56.26,21.19
56.68,19.97
57.10,18.97
57.52,18.26
57.94,18.61
58.36,18.96
58.78,22.12
59.20,27.21
59.62,32.87
60.04,37.00
60.46,37.45
60.88,34.58
61.30,31.27
61.73,29.95
62.15,31.02
62.57,33.46
62.99,35.97
63.41,37.93
63.83,39.99
64.25,43.32
64.67,47.82
65.09,52.21
65.51,53.82
65.93,55.43
66.35,57.05
66.77,57.16
67.19,56.47
67.61,55.69
68.03,54.72
68.45,52.71
68.88,48.96
69.30,44.12
69.72,39.88
70.14,36.92
70.56,34.40
70.98,32.36
71.40,31.92
71.82,33.22
72.24,34.88
72.66,35.17
73.08,34.12
73.50,33.07
73.92,28.75
74.34,23.57
74.76,19.16
75.18,16.45
75.61,15.31
76.03,15.53
76.45,16.98
76.87,18.72
77.29,19.05
77.71,17.39
78.13,15.38
78.55,14.74
78.97,15.04
79.39,15.22
79.81,15.63
80.23,16.68
80.65,17.11
81.07,17.54
81.49,17.09
81.91,15.54
82.33,14.62
82.76,15.39
83.18,16.73
83.60,17.09
84.02,16.58
84.44,16.47
84.86,17.43
85.28,18.82
85.70,19.68
86.12,19.87
86.54,19.84
86.96,19.79
87.38,20.04
87.80,21.05
88.22,21.68
88.64,22.31
89.06,23.02
89.48,23.47
89.91,24.57
90.33,26.49
90.75,28.37
91.17,28.85
91.59,27.63
92.01,25.73
92.43,24.14
92.85,23.56
93.27,24.33
93.69,25.41
94.11,25.42
94.53,24.61
94.95,24.13
95.37,24.60
95.79,25.42
96.21,26.24
96.64,29.02
97.06,32.27
97.48,35.26
97.90,38.04
98.32,40.86
98.74,43.37
99.16,45.34
99.58,46.97
100.00,48.16
101.00,48.52
101.52,48.19
102.04,47.15
102.56,44.51
103.08,40.49
103.61,37.26
104.13,36.34
104.65,36.71
105.17,37.07
105.69,38.26
106.21,39.80
106.73,42.27
107.25,46.31
107.77,52.49
108.29,60.33
108.82,68.22
109.34,75.23
109.86,81.45
110.38,86.15
110.90,87.74
111.42,85.61
111.94,80.51
112.46,73.70
112.98,66.48
113.51,63.48
114.03,60.49
114.55,56.83
115.07,54.82
115.59,52.46
116.11,48.87
116.63,45.34
117.15,43.45
117.67,43.20
118.19,43.59
118.72,43.64
119.24,42.81
119.76,41.33
120.28,39.64
120.80,37.80
121.32,35.99
121.84,35.00
122.36,35.35
122.88,35.91
123.41,36.48
123.93,37.38
124.45,37.56
124.97,37.32
125.49,37.34
126.01,37.73
126.53,38.17
127.05,38.56
127.57,39.00
128.09,39.33
128.62,39.33
129.14,39.24
129.66,39.69
130.18,40.96
130.70,42.42
131.22,43.34
131.74,43.87
132.26,44.20
132.78,44.53
133.31,45.11
133.83,44.80
134.35,43.77
134.87,43.53
135.39,44.57
135.91,45.29
136.43,44.74
136.95,43.93
137.47,43.53
137.99,43.06
138.52,42.56
139.04,42.33
139.56,42.05
140.08,42.00
140.60,43.17
141.12,45.33
141.64,46.21
142.16,47.08
142.68,48.02
143.21,49.29
143.73,52.24
144.25,57.26
144.77,63.14
145.29,67.73
145.81,69.70
146.33,69.01
146.85,66.44
147.37,63.14
147.89,59.85
148.42,56.61
148.94,53.32
149.46,49.55
149.98,45.32
150.50,41.81
151.02,41.15
151.54,40.49
152.06,42.03
152.58,45.61
153.11,49.37
153.63,51.86
154.15,52.41
154.67,50.94
155.19,48.27
155.71,45.61
156.23,43.69
156.75,42.52
157.27,41.84
157.79,41.78
158.32,42.54
158.84,43.73
159.36,44.94
159.88,46.16
160.40,46.92
160.92,47.69
161.44,50.02
161.96,52.80
162.48,55.41
163.01,59.33
163.53,67.40
164.05,81.23
164.57,101.17
165.09,125.84
165.61,151.06
166.13,172.98
166.65,191.91
167.17,208.66
167.69,217.99
168.22,210.33
168.74,182.07
169.26,141.66
169.78,122.30
170.30,102.93
170.82,73.93
171.34,55.04
171.86,44.20
172.38,39.72
172.91,39.72
173.43,42.05
173.95,44.73
174.47,45.91
174.99,44.66
175.51,42.30
176.03,40.76
176.55,40.44
177.07,41.16
177.59,42.79
178.12,44.53
178.64,45.50
179.16,45.62
179.68,45.75
180.20,45.91
180.72,46.44
181.24,47.27
181.76,48.14
182.28,49.39
182.81,51.54
183.33,54.27
183.85,56.66
184.37,58.23
184.89,59.42
185.41,60.70
185.93,61.73
186.45,62.28
186.97,62.83
187.49,63.52
188.02,63.69
188.54,63.23
189.06,62.77
189.58,61.16
190.10,59.99
190.62,59.76
191.14,60.10
191.66,60.64
192.18,60.95
192.71,60.64
193.23,59.69
193.75,58.17
194.27,56.09
194.79,53.83
195.31,52.05
195.83,51.13
196.35,50.83
196.87,50.62
197.39,50.56
197.92,50.95
198.44,51.34
198.96,52.81
199.48,53.81
200.00,53.69
201.00,52.83
201.59,51.77
202.17,50.49
202.76,48.89
203.34,47.46
203.93,46.80
204.51,46.91
205.10,47.51
205.69,48.88
206.27,51.39
206.86,54.59
207.44,57.75
208.03,60.55
208.62,61.91
209.20,63.27
209.79,66.38
210.37,70.74
210.96,79.54
211.54,99.44
212.13,136.51
212.72,187.76
213.30,237.38
213.89,264.89
214.47,259.54
215.06,226.98
215.64,182.94
216.23,142.53
216.82,113.50
217.40,95.85
217.99,86.55
218.57,83.93
219.16,85.93
219.75,87.93
220.33,99.57
220.92,120.12
221.50,147.03
222.09,171.50
222.67,184.03
223.26,182.09
223.85,170.61
224.43,156.27
225.02,142.66
225.60,129.74
226.19,116.26
226.78,102.10
227.36,88.74
227.95,77.88
228.53,70.17
229.12,65.40
229.70,64.11
230.29,62.81
230.88,61.00
231.46,59.31
232.05,58.31
232.63,58.35
233.22,59.32
233.80,61.79
234.39,67.13
234.98,76.48
235.56,89.12
236.15,101.70
236.73,109.57
237.32,110.01
237.91,104.08
238.49,95.09
239.08,86.22
239.66,79.58
240.25,77.65
240.83,75.72
241.42,73.46
242.01,71.60
242.59,70.24
243.18,69.65
243.76,69.46
244.35,69.20
244.93,68.20
245.52,66.04
246.11,63.76
246.69,63.11
247.28,64.66
247.86,67.35
248.45,69.33
249.04,70.04
249.62,71.01
250.21,73.62
250.79,75.63
251.38,77.63
251.96,82.35
252.55,87.11
253.14,90.87
253.72,93.12
254.31,94.88
254.89,97.24
255.48,99.61
256.07,101.36
256.65,103.16
257.24,105.07
257.82,106.12
258.41,106.07
258.99,105.17
259.58,103.26
260.17,100.93
260.75,99.78
261.34,100.22
261.92,100.66
262.51,102.88
263.09,105.39
263.68,107.89
264.27,110.77
264.85,114.60
265.44,119.65
266.02,125.90
266.61,133.37
267.20,141.86
267.78,151.12
268.37,161.44
268.95,172.28
269.54,181.03
270.12,184.75
270.71,183.18
271.30,179.18
271.88,177.81
272.47,176.44
273.05,177.09
273.64,181.20
274.22,187.20
274.81,192.01
275.40,192.61
275.98,188.20
276.57,180.66
277.15,173.39
277.74,169.47
278.33,170.05
278.91,175.08
279.50,183.83
280.08,194.65
280.67,207.40
281.25,225.21
281.84,251.51
282.43,269.68
283.01,287.84
283.60,335.44
284.18,396.03
284.77,471.47
285.36,565.39
285.94,683.86
286.53,829.36
287.11,992.51
287.70,1152.40
288.28,1287.73
288.87,1387.42
289.46,1450.15
290.04,1474.61
290.63,1452.29
291.21,1373.58
291.80,1241.95
292.38,1079.39
292.97,997.83
293.56,916.27
294.14,777.27
294.73,674.24
295.31,606.74
295.90,567.52
296.49,549.24
297.07,547.71
297.66,561.70
298.24,592.59
298.83,643.59
299.41,717.48
300.00,815.11
301.00,936.47
301.70,1084.86
302.39,1271.40
303.09,1512.35
303.79,1818.57
304.49,2003.79
305.18,2189.01
305.88,2615.15
306.58,3095.79
307.27,3685.11
307.97,4607.90
308.67,6359.53
309.37,9531.94
310.06,14260.81
310.76,19699.86
311.46,24131.19
312.15,25855.08
312.85,24260.52
313.55,20156.99
314.25,15091.60
314.94,10386.40
315.64,6699.14
316.34,4136.33
317.04,3328.99
317.73,2521.66
318.43,1592.27
319.13,1103.77
319.82,869.80
320.52,763.74
321.22,709.29
321.92,670.27
322.61,637.54
323.31,613.32
324.01,598.71
324.70,589.17
325.40,576.67
326.10,553.14
326.80,513.50
327.49,458.94
328.19,397.00
328.89,337.29
329.58,312.06
330.28,286.83
330.98,247.90
331.68,218.73
332.37,196.68
333.07,180.00
333.77,167.26
334.46,157.33
335.16,149.41
335.86,142.58
336.56,136.02
337.25,129.38
337.95,122.69
338.65,116.27
339.35,109.93
340.04,102.85
340.74,94.76
341.44,86.09
342.13,81.86
342.83,77.64
343.53,70.17
344.23,63.51
344.92,57.23
345.62,52.02
346.32,48.63
347.01,46.77
347.71,45.99
348.41,45.91
349.11,45.73
349.80,44.93
350.50,43.95
351.20,43.40
351.89,43.33
352.59,43.20
353.29,42.77
353.99,42.47
354.68,42.64
355.38,42.81
356.08,43.60
356.77,44.29
357.47,44.74
358.17,45.13
358.87,45.54
359.56,45.81
360.26,45.82
360.96,45.90
361.65,46.12
362.35,45.92
363.05,45.34
363.75,45.19
364.44,45.69
365.14,46.66
365.84,48.05
366.54,49.41
367.23,49.68
367.93,49.95
368.63,49.70
369.32,49.57
370.02,49.73
370.72,49.39
371.42,48.37
372.11,47.38
372.81,46.86
373.51,46.69
374.20,46.57
374.90,46.49
375.60,46.55
376.30,46.46
376.99,46.10
377.69,46.00
378.39,45.95
379.08,44.98
379.78,44.09
380.48,43.20
381.18,41.66
381.87,40.67
382.57,39.72
383.27,38.35
383.96,36.99
384.66,36.43
385.36,36.46
386.06,36.32
386.75,35.78
387.45,34.75
388.15,33.23
388.85,32.11
389.54,32.30
390.24,33.22
390.94,33.53
391.63,32.96
392.33,32.69
393.03,32.43
393.73,32.58
394.42,32.82
395.12,32.29
395.82,30.93
396.51,29.15
397.21,27.67
397.91,27.25
398.61,27.83
399.30,28.61
400.00,28.83
401.00,28.11
401.72,26.86
402.45,25.91
403.17,25.27
403.89,24.24
404.61,23.56
405.34,22.89
406.06,22.57
406.78,24.48
407.50,27.76
408.23,30.37
408.95,31.42
409.67,31.52
410.39,31.61
411.12,32.36
411.84,33.33
412.56,33.02
413.28,31.31
414.01,30.12
414.73,30.34
415.45,30.67
416.18,30.12
416.90,29.19
417.62,28.88
418.34,28.58
419.07,28.16
419.79,27.19
420.51,25.60
421.23,24.41
421.96,24.43
422.68,25.15
423.40,25.59
424.12,25.31
424.85,24.37
425.57,23.17
426.29,22.25
427.01,21.73
427.74,21.49
428.46,21.60
429.18,21.91
429.91,21.80
430.63,21.40
431.35,20.99
432.07,20.04
432.80,19.60
433.52,19.48
434.24,19.28
434.96,19.40
435.69,20.12
436.41,20.70
437.13,20.55
437.85,20.07
438.58,19.93
439.30,20.36
440.02,21.19
440.74,22.01
441.47,22.26
442.19,21.68
442.91,20.92
443.64,20.78
444.36,20.64
445.08,20.56
445.80,20.64
446.53,21.44
447.25,22.61
447.97,22.99
448.69,22.16
449.42,21.04
450.14,20.76
450.86,21.43
451.58,22.35
452.31,22.75
453.03,22.20
453.75,21.51
454.47,21.94
455.20,23.05
455.92,23.49
456.64,23.30
457.36,23.11
458.09,22.46
458.81,21.72
459.53,21.38
460.26,22.01
460.98,23.20
461.70,23.89
462.42,23.75
463.15,23.14
463.87,22.19
464.59,21.17
465.31,20.96
466.04,21.86
466.76,23.07
467.48,23.57
468.20,22.94
468.93,21.32
469.65,20.42
470.37,19.51
471.09,18.76
471.82,19.43
472.54,20.47
473.26,20.87
473.99,20.72
474.71,20.47
475.43,20.60
476.15,21.27
476.88,21.99
477.60,22.04
478.32,21.13
479.04,19.68
479.77,18.57
480.49,18.45
481.21,19.20
481.93,20.31
482.66,20.86
483.38,21.41
484.10,22.13
484.82,21.96
485.55,21.05
486.27,20.49
486.99,20.62
487.72,20.51
488.44,19.95
489.16,19.74
489.88,19.65
490.61,18.50
491.33,16.56
492.05,15.56
492.77,16.19
493.50,17.14
494.22,17.07
494.94,16.35
495.66,16.19
496.39,16.04
497.11,16.13
497.83,16.01
498.55,15.31
499.28,14.20
500.00,13.31
501.00,13.06
502.01,13.64
503.02,15.11
504.03,16.50
505.04,16.50
506.05,15.35
507.06,14.21
508.07,13.65
509.08,13.82
510.09,14.78
511.10,15.95
512.11,16.23
513.12,16.51
514.13,16.31
515.14,15.87
516.15,15.77
517.16,15.86
518.17,15.36
519.18,13.96
520.19,12.41
521.20,11.82
522.21,12.52
523.22,13.67
524.23,14.09
525.24,13.62
526.26,13.06
527.27,13.00
528.28,12.92
529.29,12.06
530.30,11.49
531.31,10.92
532.32,10.72
533.33,11.72
534.34,13.01
535.35,13.52
536.36,13.04
537.37,12.14
538.38,11.53
539.39,11.40
540.40,11.30
541.41,10.70
542.42,9.67
543.43,8.83
544.44,8.96
545.45,10.04
546.46,11.05
547.47,11.40
548.48,11.41
549.49,11.42
550.50,11.15
551.51,10.34
552.52,9.59
553.53,9.69
554.54,10.34
555.55,10.95
556.56,11.24
557.57,10.99
558.58,10.68
559.59,11.43
560.60,13.29
561.61,14.90
562.62,15.40
563.63,15.07
564.64,14.26
565.65,13.33
566.66,13.12
567.67,12.92
568.68,13.08
569.69,13.11
570.70,12.88
571.71,12.94
572.72,13.52
573.73,14.10
574.74,14.04
575.76,13.48
576.77,13.18
577.78,13.22
578.79,13.15
579.80,13.47
580.81,14.61
581.82,15.67
582.83,15.69
583.84,14.90
584.85,14.43
585.86,13.96
586.87,13.37
587.88,13.41
588.89,13.79
589.90,13.60
590.91,12.29
591.92,10.47
592.93,9.64
593.94,10.47
594.95,11.77
595.96,12.16
596.97,11.79
597.98,11.54
598.99,11.73
600.00,12.24
601.00,12.82
602.18,12.96
603.36,12.76
604.54,12.56
605.71,12.04
606.89,11.67
608.07,11.23
609.25,10.50
610.43,9.77
611.61,9.52
612.79,9.51
613.96,9.27
615.14,9.23
616.32,9.81
617.50,10.45
618.68,10.64
619.86,10.70
621.04,10.92
622.21,11.17
623.39,11.27
624.57,11.06
625.75,10.86
626.93,9.71
628.11,8.49
629.29,8.29
630.46,8.73
631.64,8.62
632.82,8.09
634.00,7.71
635.18,7.06
636.36,5.94
637.54,5.42
638.71,6.30
639.89,7.56
641.07,7.72
642.25,6.77
643.43,5.68
644.61,4.98
645.79,4.95
646.96,4.93
648.14,5.59
649.32,6.23
650.50,6.25
651.68,6.25
652.86,6.92
654.04,7.38
655.21,6.49
656.39,5.27
657.57,5.40
658.75,6.51
659.93,7.34
661.11,7.45
662.29,6.71
663.46,5.42
664.64,4.62
665.82,4.86
667.00,5.16
668.18,5.47
669.36,5.80
670.54,5.78
671.71,5.49
672.89,5.21
674.07,5.47
675.25,6.04
676.43,5.96
677.61,5.21
678.79,4.89
679.96,5.43
681.14,5.69
682.32,4.64
683.50,3.28
684.68,3.00
685.86,3.67
687.04,4.54
688.21,4.81
689.39,5.08
690.57,4.96
691.75,4.45
692.93,4.12
694.11,3.79
695.29,3.51
696.46,4.19
697.64,5.66
698.82,6.53
700.00,6.47
701.00,6.33
702.98,6.30
704.96,5.83
706.94,5.19
708.92,5.13
710.90,5.42
712.88,5.54
714.86,5.64
716.84,5.73
718.82,5.89
720.80,5.47
722.78,4.87
724.76,5.11
726.74,6.00
728.72,6.49
730.70,6.41
732.68,6.47
734.66,6.80
736.64,6.88
738.62,6.48
740.60,5.81
742.58,5.14
744.56,4.76
746.54,5.23
748.52,6.66
750.50,7.33
752.48,8.00
754.46,8.39
756.44,8.47
758.42,8.99
760.40,9.34
762.38,8.82
764.36,7.81
766.34,7.12
768.32,7.32
770.30,7.97
772.28,8.33
774.26,9.02
776.24,10.50
778.22,11.53
780.20,11.24
782.18,10.47
784.16,10.19
786.14,10.30
788.12,10.41
790.10,10.93
792.08,11.70
794.06,12.09
796.04,10.98
798.02,8.55
800.00,6.78
801.00,7.16
803.36,8.69
805.71,9.41
808.07,9.16
810.43,9.24
812.79,9.70
815.14,9.71
817.50,9.81
819.86,10.68
822.21,11.48
824.57,11.29
826.93,11.09
829.29,9.69
831.64,8.36
834.00,7.96
836.36,8.22
838.71,8.13
841.07,7.15
843.43,5.90
845.79,5.09
848.14,4.74
850.50,5.20
852.86,6.76
855.21,8.40
857.57,9.00
859.93,8.88
862.29,8.64
864.64,8.19
867.00,7.85
869.36,7.51
871.71,6.97
874.07,6.74
876.43,6.54
878.79,6.20
881.14,6.03
883.50,6.48
885.86,7.20
888.21,6.86
890.57,4.81
892.93,2.55
895.29,2.21
897.64,4.08
900.00,6.38
901.00,6.93
904.67,5.32
908.33,3.35
912.00,3.07
915.67,2.79
919.33,3.57
923.00,4.56
926.67,5.12
930.33,5.50
934.00,6.00
937.67,6.89
941.33,8.25
945.00,9.18
948.67,8.76
952.33,7.63
956.00,6.96
959.67,6.78
963.33,6.34
967.00,5.62
970.67,5.55
974.33,6.44
978.00,6.84
981.67,7.24
985.33,6.86
989.00,5.52
992.67,4.16
996.33,3.40
1000.00,3.34
1001.00,3.90
1006.10,4.67
1011.21,4.89
1016.31,4.51
1021.41,4.53
1026.51,5.31
1031.62,5.77
1036.72,5.14
1041.82,4.46
1046.92,4.79
1052.03,5.40
1057.13,5.25
1062.23,5.10
1067.33,4.21
1072.44,3.84
1077.54,4.36
1082.64,5.15
1087.74,5.28
1092.85,4.48
1097.95,3.45
1103.05,2.88
1108.15,3.18
1113.26,4.35
1118.36,5.33
1123.46,5.15
1128.56,4.24
1133.67,3.43
1138.77,3.01
1143.87,3.18
1148.97,3.47
1154.08,3.75
1159.18,4.06
1164.28,3.89
1169.38,3.39
1174.49,2.93
1179.59,3.11
1184.69,4.13
1189.79,5.63
1194.90,7.37
1200.00,8.63
1201.00,8.57
1210.06,7.84
1219.12,7.70
1228.18,7.77
1237.24,7.16
1246.30,6.52
1255.36,6.64
1264.42,6.88
1273.48,7.11
1282.55,7.41
1291.61,7.57
1300.67,7.52
1309.73,7.13
1318.79,6.71
1327.85,6.70
1336.91,7.00
1345.97,7.16
1355.03,6.77
1364.09,5.75
1373.15,4.63
1382.21,4.10
1391.27,4.35
1400.33,4.90
1409.39,4.93
1418.45,4.56
1427.52,4.20
1436.58,3.46
1445.64,3.42
1454.70,3.94
1463.76,4.84
1472.82,6.06
1481.88,7.02
1490.94,7.22
1500.00,7.04
1501.00,6.91
1510.24,6.71
1519.48,6.13
1528.72,5.20
1537.96,4.45
1547.20,4.62
1556.44,5.59
1565.69,6.28
1574.93,6.14
1584.17,6.00
1593.41,5.25
1602.65,4.83
1611.89,4.94
1621.13,5.61
1630.37,6.85
1639.61,8.01
1648.85,8.04
1658.09,6.65
1667.33,5.01
1676.57,4.67
1685.81,5.59
1695.06,6.25
1704.30,5.72
1713.54,4.78
1722.78,4.35
1732.02,3.91
1741.26,3.40
1750.50,2.88
1759.74,1.93
1768.98,1.93
1778.22,2.93
1787.46,4.48
1796.70,6.00
1805.94,6.95
1815.19,7.16
1824.43,6.83
1833.67,6.33
1842.91,5.88
1852.15,5.57
1861.39,5.57
1870.63,5.93
1879.87,6.24
1889.11,6.07
1898.35,5.65
1907.59,5.64
1916.83,5.62
1926.07,6.14
1935.31,6.78
1944.56,7.11
1953.80,6.99
1963.04,6.67
1972.28,6.63
1981.52,6.77
1990.76,6.48
2000.00,5.81
2001.00,5.79
2018.22,6.82
2035.45,7.92
2052.67,8.00
2069.90,7.08
2087.12,6.23
2104.34,6.44
2121.57,6.81
2138.79,7.17
2156.02,7.24
2173.24,6.85
2190.47,7.07
2207.69,7.77
2224.91,8.12
2242.14,7.81
2259.36,7.01
2276.59,6.33
2293.81,6.39
2311.03,6.92
2328.26,7.17
2345.48,7.19
2362.71,7.49
2379.93,7.86
2397.16,7.62
2414.38,6.77
2431.60,6.51
2448.83,6.24
2466.05,6.60
2483.28,7.28
2500.50,7.33
2517.72,6.81
2534.95,6.58
2552.17,7.11
2569.40,8.25
2586.62,9.25
2603.84,9.27
2621.07,8.43
2638.29,7.43
2655.52,6.56
2672.74,6.15
2689.97,6.62
2707.19,7.45
2724.41,7.59
2741.64,7.18
2758.86,6.77
2776.09,5.86
2793.31,5.61
2810.53,5.44
2827.76,4.99
2844.98,4.90
2862.21,4.99
2879.43,4.45
2896.66,3.63
2913.88,3.48
2931.10,3.73
2948.33,3.64
2965.55,3.37
2982.78,3.47
3000.00,4.02
3001.00,5.05
3025.99,6.40
3050.98,6.90
3075.98,7.40
3100.97,7.68
3125.96,7.48
3150.95,7.06
3175.94,6.75
3200.93,7.12
3225.93,8.11
3250.92,8.55
3275.91,7.70
3300.90,6.45
3325.89,6.17
3350.88,7.16
3375.87,8.72
3400.87,10.08
3425.86,10.77
3450.85,10.70
3475.84,9.93
3500.83,9.37
3525.82,8.81
3550.82,8.09
3575.81,8.06
3600.80,8.25
3625.79,8.63
3650.78,9.24
3675.77,9.18
3700.77,7.66
3725.76,5.40
3750.75,3.90
3775.74,3.63
3800.73,3.70
3825.73,3.59
3850.72,3.83
3875.71,4.56
3900.70,5.20
3925.69,5.34
3950.68,5.23
3975.68,5.11
4000.67,4.66
4025.66,3.91
4050.65,3.07
4075.64,2.84
4100.63,3.57
4125.62,4.74
4150.62,5.59
4175.61,5.92
4200.60,5.97
4225.59,5.83
4250.58,5.52
4275.58,5.06
4300.57,4.44
4325.56,3.91
4350.55,3.94
4375.54,4.51
4400.53,4.77
4425.52,5.04
4450.52,4.93
4475.51,4.06
4500.50,3.26
4525.49,3.62
4550.48,5.06
4575.48,6.58
4600.47,7.33
4625.46,7.07
4650.45,6.50
4675.44,6.82
4700.43,7.99
4725.42,8.90
4750.42,9.04
4775.41,8.57
4800.40,7.37
4825.39,5.61
4850.38,4.86
4875.37,4.11
