Size (bp),Intensity
0.58,1274.59
1.00,1057.50
2.00,699.23
2.42,378.79
2.84,181.74
3.26,91.93
3.68,60.06
4.10,51.16
4.52,49.46
4.94,49.32
5.36,49.19
5.79,48.55
6.21,46.78
6.63,43.30
7.05,38.40
7.47,32.79
7.89,26.94
8.31,21.35
8.73,16.57
9.15,12.67
9.57,9.44
9.99,7.04
10.41,6.02
10.83,6.26
11.25,6.56
11.67,6.30
12.09,6.12
12.52,5.93
12.94,5.12
13.36,3.24
13.78,1.48
14.20,1.41
14.62,2.46
15.04,3.93
15.46,7.70
15.88,16.02
16.30,27.53
16.72,37.05
17.14,39.07
17.56,31.97
17.98,19.67
18.40,8.41
18.82,1.84
19.24,0.84
19.67,-0.17
20.09,0.29
20.51,1.17
20.93,1.58
21.35,1.64
21.77,1.47
22.19,0.62
22.61,-1.18
23.03,-2.86
23.45,-3.15
23.87,-2.21
24.29,-1.26
24.71,-1.12
25.13,-1.58
25.55,-2.07
25.97,-2.12
26.39,-1.69
26.82,-1.49
27.24,-1.29
27.66,-1.16
28.08,-1.27
28.50,-1.65
28.92,-1.79
29.34,-0.92
29.76,0.52
30.18,1.00
30.60,-0.48
31.02,-2.95
31.44,-4.63
31.86,-5.33
32.28,-5.98
32.70,-6.35
33.12,-5.37
33.55,-3.38
33.97,-2.57
34.39,-1.75
34.81,-1.12
35.23,-1.46
35.65,-2.45
36.07,-3.24
36.49,-3.33
36.91,-3.41
37.33,-4.07
37.75,-4.82
38.17,-4.84
38.59,-4.01
39.01,-2.78
39.43,-1.72
39.85,-1.29
40.27,-1.92
40.70,-3.34
41.12,-3.90
41.54,-4.46
41.96,-4.45
42.38,-3.51
42.80,-2.54
43.22,-2.17
43.64,-2.26
44.06,-2.41
44.48,-2.61
44.90,-2.90
45.32,-2.80
45.74,-1.78
46.16,-0.46
46.58,-0.22
47.00,-1.26
47.42,-2.29
47.85,-2.42
48.27,-2.29
48.69,-2.38
49.11,-2.48
49.53,-2.31
49.95,-1.43
50.37,-0.71
50.79,-0.66
51.21,-0.37
51.63,1.26
52.05,3.99
52.47,6.43
52.89,7.70
53.31,7.91
53.73,7.41
54.15,6.33
54.58,4.53
55.00,2.37
55.42,0.80
55.84,0.62
56.26,0.44
56.68,1.09
57.10,2.09
57.52,2.91
57.94,3.31
58.36,3.11
58.78,2.22
59.20,0.93
59.62,-0.22
60.04,-0.79
60.46,-0.68
60.88,0.21
61.30,1.63
61.73,2.29
62.15,1.25
62.57,-0.15
62.99,-0.18
63.41,-0.20
63.83,0.61
64.25,0.78
64.67,-0.17
65.09,-1.42
65.51,-2.15
65.93,-2.45
66.35,-2.71
66.77,-2.85
67.19,-2.73
67.61,-2.38
68.03,-1.63
68.45,-0.50
68.88,0.37
69.30,0.48
69.72,0.08
70.14,-0.54
70.56,-0.84
70.98,-1.14
71.40,-1.11
71.82,-0.24
72.24,0.56
72.66,0.55
73.08,-0.02
73.50,-0.53
73.92,-0.65
74.34,-0.52
74.76,-0.22
75.18,0.55
75.61,1.37
76.03,1.11
76.45,0.01
76.87,-0.50
77.29,-0.32
77.71,-0.47
78.13,-0.62
78.55,-1.66
78.97,-2.68
79.39,-2.85
79.81,-1.97
80.23,-0.81
80.65,-0.18
81.07,-0.12
81.49,-0.32
81.91,-0.60
82.33,-0.86
82.76,-0.84
83.18,-0.53
83.60,-0.48
84.02,-0.87
84.44,-1.24
84.86,-1.28
85.28,-1.32
85.70,-1.32
86.12,-1.41
86.54,-1.57
86.96,-1.76
87.38,-1.88
87.80,-1.76
88.22,-1.36
88.64,-1.23
89.06,-2.09
89.48,-3.27
89.91,-3.15
90.33,-1.65
90.75,-0.27
91.17,0.02
91.59,-0.35
92.01,-0.39
92.43,-0.12
92.85,0.14
93.27,0.62
93.69,0.41
94.11,-0.56
94.53,-1.68
94.95,-2.09
95.37,-1.56
95.79,-0.75
96.21,-0.67
96.64,-1.51
97.06,-2.43
97.48,-2.73
97.90,-2.65
98.32,-2.53
98.74,-2.50
99.16,-2.63
99.58,-2.69
100.00,-2.75
101.00,-2.57
101.52,-2.48
102.04,-2.99
102.56,-3.65
103.08,-3.52
103.61,-2.58
104.13,-1.78
104.65,-1.54
105.17,-1.16
105.69,-0.40
106.21,-0.18
106.73,-0.65
107.25,-0.84
107.77,-0.41
108.29,-0.14
108.82,-0.37
109.34,-0.60
109.86,-1.52
110.38,-2.23
110.90,-2.62
111.42,-2.99
111.94,-3.15
112.46,-2.60
112.98,-1.48
113.51,-0.48
114.03,0.03
114.55,0.14
115.07,0.37
115.59,0.97
116.11,1.41
116.63,0.99
117.15,-0.10
117.67,-0.75
118.19,-0.55
118.72,-0.35
119.24,0.39
119.76,0.69
120.28,0.54
120.80,0.11
121.32,-0.40
121.84,-0.38
122.36,0.61
122.88,1.66
123.41,1.46
123.93,0.53
124.45,0.35
124.97,0.87
125.49,1.10
126.01,0.96
126.53,0.75
127.05,0.47
127.57,0.19
128.09,-0.34
128.62,0.15
129.14,1.39
129.66,2.10
130.18,1.77
130.70,1.04
131.22,0.79
131.74,0.95
132.26,0.77
132.78,0.40
133.31,0.58
133.83,0.98
134.35,0.86
134.87,0.39
135.39,0.05
135.91,0.03
136.43,-0.00
136.95,0.38
137.47,1.38
137.99,2.76
138.52,3.58
139.04,3.12
139.56,1.80
140.08,0.58
140.60,0.14
141.12,0.61
141.64,1.77
142.16,3.09
142.68,3.86
143.21,3.91
143.73,3.78
144.25,3.57
144.77,2.84
145.29,2.35
145.81,1.86
146.33,1.61
146.85,2.46
147.37,3.66
147.89,4.30
148.42,4.28
148.94,3.91
149.46,3.35
149.98,2.82
150.50,3.00
151.02,4.33
151.54,6.07
152.06,6.95
152.58,6.87
153.11,6.75
153.63,7.03
154.15,7.11
154.67,7.18
155.19,6.62
155.71,5.71
156.23,5.21
156.75,5.36
157.27,5.86
157.79,6.24
158.32,5.97
158.84,5.40
159.36,5.84
159.88,7.59
160.40,9.24
160.92,9.76
161.44,9.58
161.96,9.35
162.48,9.47
163.01,9.63
163.53,9.80
164.05,9.41
164.57,8.08
165.09,7.02
165.61,6.93
166.13,7.44
166.65,8.65
167.17,10.28
167.69,10.86
168.22,10.08
168.74,9.37
169.26,9.64
169.78,10.54
170.30,11.43
170.82,12.33
171.34,13.37
171.86,13.83
172.38,13.48
172.91,13.13
173.43,12.21
173.95,12.19
174.47,12.91
174.99,13.92
175.51,15.02
176.03,15.77
176.55,15.62
177.07,14.55
177.59,13.35
178.12,13.04
178.64,13.95
179.16,15.71
179.68,17.78
180.20,19.60
180.72,20.71
181.24,21.00
181.76,21.29
182.28,21.86
182.81,22.65
183.33,24.19
183.85,26.93
184.37,29.67
184.89,30.92
185.41,31.36
185.93,32.68
186.45,35.33
186.97,38.46
187.49,41.37
188.02,44.36
188.54,47.52
189.06,50.07
189.58,51.97
190.10,53.01
190.62,54.04
191.14,56.37
191.66,58.38
192.18,59.81
192.71,61.17
193.23,63.29
193.75,66.01
194.27,68.41
194.79,70.36
195.31,72.39
195.83,74.23
196.35,75.62
196.87,77.32
197.39,80.35
197.92,84.48
198.44,88.76
198.96,92.71
199.48,94.54
200.00,96.38
201.00,100.03
201.59,104.00
202.17,108.99
202.76,115.45
203.34,122.21
203.93,127.31
204.51,131.00
205.10,135.43
205.69,141.28
206.27,147.36
206.86,153.19
207.44,159.70
208.03,167.30
208.62,174.98
209.20,181.61
209.79,184.41
210.37,187.21
210.96,192.41
211.54,197.51
212.13,202.66
212.72,208.20
213.30,214.19
213.89,220.61
214.47,227.53
215.06,234.33
215.64,240.49
216.23,246.75
216.82,253.94
217.40,261.65
217.99,269.06
218.57,275.92
219.16,282.46
219.75,285.97
220.33,289.48
220.92,297.57
221.50,305.90
222.09,313.86
222.67,322.33
223.26,332.10
223.85,342.94
224.43,354.25
225.02,365.35
225.60,375.36
226.19,383.66
226.78,390.71
227.36,397.50
227.95,403.93
228.53,409.62
229.12,415.75
229.70,423.45
230.29,427.70
230.88,431.95
231.46,440.64
232.05,450.27
232.63,461.08
233.22,472.07
233.80,482.12
234.39,490.91
234.98,499.47
235.56,509.14
236.15,519.72
236.73,530.08
237.32,539.65
237.91,548.81
238.49,558.10
239.08,566.98
239.66,574.38
240.25,577.32
240.83,580.26
241.42,585.28
242.01,589.92
242.59,595.24
243.18,602.70
243.76,612.57
244.35,623.56
244.93,634.33
245.52,644.49
246.11,653.79
246.69,661.58
247.28,667.85
247.86,673.50
248.45,678.91
249.04,683.62
249.62,687.61
250.21,689.62
250.79,691.64
251.38,696.16
251.96,701.06
252.55,706.05
253.14,710.54
253.72,714.28
254.31,718.10
254.89,722.57
255.48,726.77
256.07,729.46
256.65,730.64
257.24,731.27
257.82,732.38
258.41,734.68
258.99,738.85
259.58,744.96
260.17,751.59
260.75,754.38
261.34,757.17
261.92,761.60
262.51,764.73
263.09,765.30
263.68,762.76
264.27,758.45
264.85,753.88
265.44,748.79
266.02,742.31
266.61,735.40
267.20,730.20
267.78,727.61
268.37,726.96
268.95,727.75
269.54,730.47
270.12,734.68
270.71,736.46
271.30,738.25
271.88,739.92
272.47,739.63
273.05,737.34
273.64,733.82
274.22,729.96
274.81,725.81
275.40,721.47
275.98,717.18
276.57,713.17
277.15,710.60
277.74,710.23
278.33,710.72
278.91,710.65
279.50,710.45
280.08,710.74
280.67,710.74
281.25,710.74
281.84,709.54
282.43,707.17
283.01,703.57
283.60,697.97
284.18,689.96
284.77,680.23
285.36,670.51
285.94,662.68
286.53,657.14
287.11,652.94
287.70,649.07
288.28,644.76
288.87,640.11
289.46,636.88
290.04,636.18
290.63,636.14
291.21,635.35
291.80,634.55
292.38,631.42
292.97,627.28
293.56,622.41
294.14,617.69
294.73,613.91
295.31,611.29
295.90,609.95
296.49,609.41
297.07,608.45
297.66,606.63
298.24,604.32
298.83,601.67
299.41,598.83
300.00,595.76
301.00,592.34
301.70,591.05
302.39,589.75
303.09,589.07
303.79,589.23
304.49,588.66
305.18,587.01
305.88,584.78
306.58,582.60
307.27,580.68
307.97,579.31
308.67,578.90
309.37,578.57
310.06,577.13
310.76,575.49
311.46,575.68
312.15,577.19
312.85,576.99
313.55,575.43
314.25,573.87
314.94,569.55
315.64,565.29
316.34,561.34
317.04,558.78
317.73,558.02
318.43,556.89
319.13,553.16
319.82,547.38
320.52,541.16
321.22,534.66
321.92,527.42
322.61,519.70
323.31,512.33
324.01,505.92
324.70,500.70
325.40,496.15
326.10,493.38
326.80,490.61
327.49,483.03
328.19,474.57
328.89,467.00
329.58,460.69
330.28,454.85
330.98,448.56
331.68,441.60
332.37,434.57
333.07,427.92
333.77,421.38
334.46,414.93
335.16,409.67
335.86,406.49
336.56,404.32
337.25,401.67
337.95,400.23
338.65,398.79
339.35,396.34
340.04,393.63
340.74,389.71
341.44,385.06
342.13,380.64
342.83,376.29
343.53,371.72
344.23,368.21
344.92,367.32
345.62,368.70
346.32,370.27
347.01,370.29
347.71,368.92
348.41,367.46
349.11,366.37
349.80,365.83
350.50,365.30
351.20,363.98
351.89,361.56
352.59,357.08
353.29,351.41
353.99,346.37
354.68,342.21
355.38,338.40
356.08,335.94
356.77,336.15
357.47,338.32
358.17,340.98
358.87,343.55
359.56,344.82
360.26,343.03
360.96,338.54
361.65,333.31
362.35,330.81
363.05,328.31
363.75,323.49
364.44,318.92
365.14,315.07
365.84,312.56
366.54,311.47
367.23,310.80
367.93,309.31
368.63,306.58
369.32,303.24
370.02,300.34
370.72,297.91
371.42,295.12
372.11,292.59
372.81,291.83
373.51,292.32
374.20,292.19
374.90,292.06
375.60,290.30
376.30,288.09
376.99,286.39
377.69,284.82
378.39,282.60
379.08,279.64
379.78,276.58
380.48,274.49
381.18,273.52
381.87,272.69
382.57,271.48
383.27,269.80
383.96,267.52
384.66,265.20
385.36,263.85
386.06,263.75
386.75,263.65
387.45,263.92
388.15,264.08
388.85,264.23
389.54,264.70
390.24,265.27
390.94,265.63
391.63,266.23
392.33,267.00
393.03,266.90
393.73,265.64
394.42,263.77
395.12,261.10
395.82,257.17
396.51,252.88
397.21,249.95
397.91,248.45
398.61,247.60
399.30,246.74
400.00,244.14
401.00,241.67
401.72,240.23
402.45,239.76
403.17,239.74
403.89,239.54
404.61,239.36
405.34,239.85
406.06,240.74
406.78,241.23
407.50,241.13
408.23,240.68
408.95,240.22
409.67,239.97
410.39,239.73
411.12,239.62
411.84,239.50
412.56,240.30
413.28,242.97
414.01,246.67
414.73,249.48
415.45,249.94
416.18,248.19
416.90,245.26
417.62,241.55
418.34,236.79
419.07,230.85
419.79,224.20
420.51,218.02
421.23,213.46
421.96,210.28
422.68,207.10
423.40,203.45
424.12,201.87
424.85,200.28
425.57,198.26
426.29,196.95
427.01,195.66
427.74,194.15
428.46,192.73
429.18,191.49
429.91,190.26
430.63,189.64
431.35,189.94
432.07,189.99
432.80,189.14
433.52,188.47
434.24,188.62
434.96,188.52
435.69,187.15
436.41,185.97
437.13,184.79
437.85,182.30
438.58,180.27
439.30,178.79
440.02,177.22
440.74,175.16
441.47,173.42
442.19,172.71
442.91,172.65
443.64,172.73
444.36,172.66
445.08,171.98
445.80,170.39
446.53,168.07
447.25,165.85
447.97,164.78
448.69,164.71
449.42,164.63
450.14,164.32
450.86,163.71
451.58,163.23
452.31,162.79
453.03,162.13
453.75,161.43
454.47,161.14
455.20,161.35
455.92,161.76
456.64,161.97
457.36,161.68
458.09,160.99
458.81,160.36
459.53,159.91
460.26,159.48
460.98,159.25
461.70,159.41
462.42,159.57
463.15,160.22
463.87,160.69
464.59,160.49
465.31,159.11
466.04,156.93
466.76,155.32
467.48,155.11
468.20,156.02
468.93,157.34
469.65,158.12
470.37,157.60
471.09,156.01
471.82,154.36
472.54,152.68
473.26,150.12
473.99,148.48
474.71,146.85
475.43,143.76
476.15,141.23
476.88,139.39
477.60,138.37
478.32,138.03
479.04,138.18
479.77,138.56
480.49,138.75
481.21,138.41
481.93,137.79
482.66,137.53
483.38,137.55
484.10,137.12
484.82,136.11
485.55,134.90
486.27,134.06
486.99,133.21
487.72,130.56
488.44,127.43
489.16,124.47
489.88,121.41
490.61,118.46
491.33,116.83
492.05,116.49
492.77,115.95
493.50,114.78
494.22,114.11
494.94,114.68
495.66,115.91
496.39,116.66
497.11,116.64
497.83,116.55
498.55,116.99
499.28,117.42
500.00,117.86
501.00,118.55
502.01,118.63
503.02,118.48
504.03,118.30
505.04,117.31
506.05,115.22
507.06,112.94
508.07,111.43
509.08,110.98
510.09,111.00
511.10,110.37
512.11,108.70
513.12,106.99
514.13,106.39
515.14,106.56
516.15,106.46
517.16,106.35
518.17,105.92
519.18,106.22
520.19,106.69
521.20,106.12
522.21,104.66
523.22,103.06
524.23,101.62
525.24,100.35
526.26,98.81
527.27,97.16
528.28,96.47
529.29,96.68
530.30,96.45
531.31,95.46
532.32,94.37
533.33,94.03
534.34,93.69
535.35,93.60
536.36,93.90
537.37,94.31
538.38,94.60
539.39,94.11
540.40,92.58
541.41,90.90
542.42,89.81
543.43,89.04
544.44,88.10
545.45,87.31
546.46,87.07
547.47,86.95
548.48,86.45
549.49,85.52
550.50,84.23
551.51,83.75
552.52,83.27
553.53,83.43
554.54,84.37
555.55,85.17
556.56,85.38
557.57,85.09
558.58,84.57
559.59,83.85
560.60,83.06
561.61,82.64
562.62,82.79
563.63,83.12
564.64,83.43
565.65,83.96
566.66,84.69
567.67,85.08
568.68,85.09
569.69,85.09
570.70,85.00
571.71,84.80
572.72,84.40
573.73,83.78
574.74,83.07
575.76,82.65
576.77,82.36
577.78,81.52
578.79,80.67
579.80,81.00
580.81,81.87
581.82,81.44
582.83,79.54
583.84,77.37
584.85,75.55
585.86,74.76
586.87,73.97
587.88,72.71
588.89,72.16
589.90,72.27
590.91,72.26
591.92,71.55
592.93,70.55
593.94,69.98
594.95,69.55
595.96,68.56
596.97,67.66
597.98,68.10
598.99,69.56
600.00,70.67
601.00,71.01
602.18,71.07
603.36,71.11
604.54,70.93
605.71,70.74
606.89,69.61
608.07,68.08
609.25,67.30
610.43,67.83
611.61,68.57
612.79,68.18
613.96,66.81
615.14,65.50
616.32,64.54
617.50,63.41
618.68,62.16
619.86,61.82
621.04,62.84
622.21,63.94
623.39,64.01
624.57,64.12
625.75,64.22
626.93,65.77
628.11,67.20
629.29,66.52
630.46,64.46
631.64,63.34
632.82,63.50
634.00,63.13
635.18,61.69
636.36,60.72
637.54,60.82
638.71,60.64
639.89,59.33
641.07,57.65
642.25,56.73
643.43,56.83
644.61,57.07
645.79,57.31
646.96,57.63
648.14,57.77
649.32,57.90
650.50,58.22
651.68,58.62
652.86,58.15
654.04,56.07
655.21,53.46
656.39,52.39
657.57,53.19
658.75,54.53
659.93,55.28
661.11,55.07
662.29,54.18
663.46,53.70
664.64,54.15
665.82,54.41
667.00,54.67
668.18,54.50
669.36,53.71
670.54,52.67
671.71,51.89
672.89,51.65
674.07,52.00
675.25,53.02
676.43,53.71
677.61,52.59
678.79,50.19
679.96,48.20
681.14,46.83
682.32,45.69
683.50,45.31
684.68,45.86
685.86,46.25
687.04,46.63
688.21,47.18
689.39,47.44
690.57,47.30
691.75,46.82
692.93,45.83
694.11,44.23
695.29,42.87
696.46,42.75
697.64,43.57
698.82,44.09
700.00,43.54
701.00,42.06
702.98,40.20
704.96,38.58
706.94,37.76
708.92,37.76
710.90,37.75
712.88,37.94
714.86,38.06
716.84,38.28
718.82,38.38
720.80,38.12
722.78,37.86
724.76,38.01
726.74,38.70
728.72,39.38
730.70,38.92
732.68,37.36
734.66,36.14
736.64,36.07
738.62,36.45
740.60,36.05
742.58,34.75
744.56,34.54
746.54,34.34
748.52,35.88
750.50,37.03
752.48,35.52
754.46,33.02
756.44,32.26
758.42,32.94
760.40,33.18
762.38,32.42
764.36,31.35
766.34,30.85
768.32,31.22
770.30,31.63
772.28,31.26
774.26,30.44
776.24,30.01
778.22,30.16
780.20,30.31
782.18,30.94
784.16,30.90
786.14,29.64
788.12,27.95
790.10,26.82
792.08,26.36
794.06,26.69
796.04,28.02
798.02,29.70
800.00,30.78
801.00,31.09
803.36,30.67
805.71,29.61
808.07,28.42
810.43,27.50
812.79,27.28
815.14,27.05
817.50,27.32
819.86,28.11
822.21,28.66
824.57,28.45
826.93,27.55
829.29,26.38
831.64,25.26
834.00,24.49
836.36,24.49
838.71,25.14
841.07,25.74
843.43,26.18
845.79,26.67
848.14,26.88
850.50,26.51
852.86,25.53
855.21,24.57
857.57,23.62
859.93,20.87
862.29,18.67
864.64,18.38
867.00,19.78
869.36,21.36
871.71,21.71
874.07,20.61
876.43,19.25
878.79,18.85
881.14,19.01
883.50,18.82
885.86,18.48
888.21,18.44
890.57,18.38
892.93,18.04
895.29,17.83
897.64,17.63
900.00,17.43
901.00,17.56
904.67,17.86
908.33,18.01
912.00,17.70
915.67,16.91
919.33,15.70
923.00,14.08
926.67,12.60
930.33,12.09
934.00,12.40
937.67,12.61
941.33,12.12
945.00,11.03
948.67,10.11
952.33,10.15
956.00,10.18
959.67,11.23
963.33,12.74
967.00,14.17
970.67,14.75
974.33,13.82
978.00,11.84
981.67,10.31
985.33,10.37
989.00,11.76
992.67,13.10
996.33,13.07
1000.00,12.00
1001.00,11.30
1006.10,11.49
1011.21,11.95
1016.31,12.04
1021.41,11.74
1026.51,11.45
1031.62,10.38
1036.72,9.29
1041.82,8.37
1046.92,7.83
1052.03,7.79
1057.13,7.51
1062.23,6.52
1067.33,5.90
1072.44,6.50
1077.54,7.25
1082.64,7.23
1087.74,7.09
1092.85,7.13
1097.95,6.70
1103.05,6.25
1108.15,6.41
1113.26,6.57
1118.36,7.18
1123.46,7.75
1128.56,8.24
1133.67,7.84
1138.77,6.35
1143.87,4.99
1148.97,4.64
1154.08,4.86
1159.18,5.01
1164.28,4.95
1169.38,4.89
1174.49,5.02
1179.59,5.20
1184.69,5.05
1189.79,4.53
1194.90,4.08
1200.00,3.64
1201.00,2.32
1210.06,1.25
1219.12,1.28
1228.18,2.12
1237.24,2.92
1246.30,3.31
1255.36,3.30
1264.42,3.25
1273.48,3.49
1282.55,3.74
1291.61,3.61
1300.67,3.13
1309.73,2.31
1318.79,1.25
1327.85,0.79
1336.91,1.17
1345.97,1.31
1355.03,1.45
1364.09,1.27
1373.15,0.92
1382.21,0.61
1391.27,0.76
1400.33,0.87
1409.39,-0.03
1418.45,-0.90
1427.52,-0.14
1436.58,1.38
1445.64,1.96
1454.70,1.67
1463.76,1.63
1472.82,2.10
1481.88,2.45
1490.94,2.47
1500.00,2.48
1501.00,2.49
1510.24,2.66
1519.48,3.12
1528.72,4.01
1537.96,4.78
1547.20,4.52
1556.44,3.23
1565.69,1.96
1574.93,1.51
1584.17,1.84
1593.41,2.89
1602.65,4.43
1611.89,5.00
1621.13,3.68
1630.37,1.95
1639.61,1.22
1648.85,1.15
1658.09,1.08
1667.33,1.37
1676.57,2.61
1685.81,4.63
1695.06,6.40
1704.30,6.64
1713.54,5.12
1722.78,3.18
1732.02,2.02
1741.26,1.70
1750.50,2.09
1759.74,2.83
1768.98,3.17
1778.22,2.69
1787.46,1.52
1796.70,0.43
1805.94,0.41
1815.19,0.79
1824.43,1.18
1833.67,1.70
1842.91,2.22
1852.15,3.74
1861.39,5.68
1870.63,6.10
1879.87,4.38
1889.11,2.47
1898.35,2.30
1907.59,3.35
1916.83,3.94
1926.07,3.71
1935.31,3.31
1944.56,2.83
1953.80,1.82
1963.04,0.17
1972.28,-0.59
1981.52,-1.34
1990.76,-1.59
2000.00,-0.43
2001.00,1.05
2018.22,1.93
2035.45,2.45
2052.67,3.05
2069.90,3.52
2087.12,3.48
2104.34,2.85
2121.57,2.06
2138.79,1.73
2156.02,1.88
2173.24,1.77
2190.47,0.78
2207.69,-0.67
2224.91,-0.90
2242.14,-1.13
2259.36,-0.06
2276.59,1.40
2293.81,2.57
2311.03,4.17
2328.26,6.19
2345.48,7.40
2362.71,7.22
2379.93,6.34
2397.16,5.47
2414.38,4.69
2431.60,4.06
2448.83,3.92
2466.05,4.24
2483.28,4.31
2500.50,3.81
2517.72,3.19
2534.95,3.02
2552.17,2.85
2569.40,3.11
2586.62,4.18
2603.84,5.42
2621.07,5.72
2638.29,4.96
2655.52,4.11
2672.74,4.16
2689.97,5.34
2707.19,6.67
2724.41,6.85
2741.64,5.91
2758.86,5.00
2776.09,4.58
2793.31,4.42
2810.53,4.39
2827.76,4.42
2844.98,4.44
2862.21,4.35
2879.43,4.27
2896.66,4.51
2913.88,4.79
2931.10,4.77
2948.33,4.85
2965.55,5.45
2982.78,6.00
3000.00,5.65
3001.00,4.54
3025.99,3.77
3050.98,3.57
3075.98,3.00
3100.97,1.94
3125.96,1.45
3150.95,1.58
3175.94,1.72
3200.93,2.08
3225.93,2.32
3250.92,2.55
3275.91,2.80
3300.90,3.11
3325.89,3.36
3350.88,3.54
3375.87,3.64
3400.87,3.71
3425.86,4.23
3450.85,5.47
3475.84,6.68
3500.83,7.02
3525.82,6.40
3550.82,5.10
3575.81,3.95
3600.80,3.86
3625.79,3.78
3650.78,3.96
3675.77,3.56
3700.77,3.23
3725.76,3.79
3750.75,4.70
3775.74,5.24
3800.73,5.26
3825.73,4.83
3850.72,3.89
3875.71,2.63
3900.70,2.03
3925.69,3.00
3950.68,4.82
3975.68,5.76
4000.67,5.07
4025.66,4.22
4050.65,3.37
4075.64,1.95
4100.63,1.83
4125.62,2.79
4150.62,3.55
4175.61,3.79
4200.60,4.67
