Size (bp),Intensity
0.58,1904.32
1.00,1517.79
2.00,961.47
2.42,502.30
2.84,240.11
3.26,128.82
3.68,110.17
4.10,91.52
4.52,81.22
4.94,78.25
5.36,75.70
5.79,72.19
6.21,67.89
6.63,62.75
7.05,56.66
7.47,49.56
7.89,41.45
8.31,33.14
8.73,26.44
9.15,22.40
9.57,20.18
9.99,19.40
10.41,18.61
10.83,17.70
11.25,17.50
11.67,16.86
12.09,14.87
12.52,12.31
12.94,10.56
13.36,9.96
13.78,9.65
14.20,8.56
14.62,6.66
15.04,5.04
15.46,4.66
15.88,5.21
16.30,5.76
16.72,7.49
17.14,8.52
17.56,8.65
17.98,8.65
18.40,8.66
18.82,8.32
19.24,7.63
19.67,7.13
20.09,7.43
20.51,8.38
20.93,9.10
21.35,9.02
21.77,8.41
22.19,8.21
22.61,8.02
23.03,8.35
23.45,8.97
23.87,9.17
24.29,8.86
24.71,8.17
25.13,7.00
25.55,5.28
25.97,3.53
26.39,2.73
26.82,3.37
27.24,5.12
27.66,7.33
28.08,8.21
28.50,9.09
28.92,9.75
29.34,9.82
29.76,10.56
30.18,12.12
30.60,13.35
31.02,13.28
31.44,12.23
31.86,11.32
32.28,10.91
32.70,10.46
33.12,9.66
33.55,8.91
33.97,8.76
34.39,9.04
34.81,9.32
35.23,10.30
35.65,11.26
36.07,11.69
36.49,11.68
36.91,12.04
37.33,13.19
37.75,14.36
38.17,14.32
38.59,12.72
39.01,10.67
39.43,9.52
39.85,9.66
40.27,10.08
40.70,10.50
41.12,10.81
41.54,9.95
41.96,8.75
42.38,8.17
42.80,8.16
43.22,8.33
43.64,8.61
44.06,8.87
44.48,8.97
44.90,9.03
45.32,9.01
45.74,8.50
46.16,7.97
46.58,8.39
47.00,8.81
47.42,10.87
47.85,12.23
48.27,12.21
48.69,11.89
49.11,11.65
49.53,11.17
49.95,10.67
50.37,10.52
50.79,10.77
51.21,11.23
51.63,11.32
52.05,10.79
52.47,10.44
52.89,10.10
53.31,9.62
53.73,9.43
54.15,9.74
54.58,10.50
55.00,11.08
55.42,10.64
55.84,9.25
56.26,8.10
56.68,7.92
57.10,8.25
57.52,8.44
57.94,8.33
58.36,8.14
58.78,8.13
59.20,8.11
59.62,7.78
60.04,6.72
60.46,5.64
60.88,5.01
61.30,4.17
61.73,3.44
62.15,4.19
62.57,5.90
62.99,6.68
63.41,6.43
63.83,6.48
64.25,7.17
64.67,7.52
65.09,7.87
65.51,8.28
65.93,8.65
66.35,8.92
66.77,8.56
67.19,7.76
67.61,6.82
68.03,5.23
68.45,3.07
68.88,1.63
69.30,1.71
69.72,2.82
70.14,4.04
70.56,4.35
70.98,4.66
71.40,4.51
71.82,4.11
72.24,4.02
72.66,4.11
73.08,4.19
73.50,4.16
73.92,4.05
74.34,4.16
74.76,4.35
75.18,4.11
75.61,3.66
76.03,3.63
76.45,4.38
76.87,5.09
77.29,5.81
77.71,7.16
78.13,7.56
78.55,7.03
78.97,6.03
79.39,4.86
79.81,3.67
80.23,2.89
80.65,3.01
81.07,3.76
81.49,4.48
81.91,5.11
82.33,6.03
82.76,6.84
83.18,7.65
83.60,9.64
84.02,10.93
84.44,11.31
84.86,11.31
85.28,11.18
85.70,11.16
86.12,11.59
86.54,12.32
86.96,12.94
87.38,13.15
87.80,12.79
88.22,12.05
88.64,11.54
89.06,11.66
89.48,11.79
89.91,12.88
90.33,14.22
90.75,14.66
91.17,13.83
91.59,12.97
92.01,13.08
92.43,13.80
92.85,14.80
93.27,16.08
93.69,16.83
94.11,16.25
94.53,15.36
94.95,15.57
95.37,15.78
95.79,17.28
96.21,18.69
96.64,20.03
97.06,21.92
97.48,24.12
97.90,25.73
98.32,26.23
98.74,26.18
99.16,26.79
99.58,28.95
100.00,32.71
101.00,37.31
101.52,41.54
102.04,42.87
102.56,44.20
103.08,44.28
103.61,41.96
104.13,39.06
104.65,37.26
105.17,36.40
105.69,35.16
106.21,33.46
106.73,32.93
107.25,34.58
107.77,37.55
108.29,40.96
108.82,45.24
109.34,47.88
109.86,50.52
110.38,54.72
110.90,54.91
111.42,50.55
111.94,43.55
112.46,35.71
112.98,28.22
113.51,22.00
114.03,17.19
114.55,13.83
115.07,12.33
115.59,12.49
116.11,13.25
116.63,13.67
117.15,13.58
117.67,13.48
118.19,12.72
118.72,11.50
119.24,10.33
119.76,9.40
120.28,8.39
120.80,7.70
121.32,8.26
121.84,9.59
122.36,10.21
122.88,9.68
123.41,8.76
123.93,8.23
124.45,8.16
124.97,8.09
125.49,8.10
126.01,8.45
126.53,8.90
127.05,8.91
127.57,8.74
128.09,8.80
128.62,8.88
129.14,8.76
129.66,8.65
130.18,8.88
130.70,9.35
131.22,9.69
131.74,9.96
132.26,10.08
132.78,10.19
133.31,10.05
133.83,9.44
134.35,8.64
134.87,7.77
135.39,6.71
135.91,5.58
136.43,5.02
136.95,5.56
137.47,6.70
137.99,7.25
138.52,6.91
139.04,6.37
139.56,6.25
140.08,6.12
140.60,6.14
141.12,6.31
141.64,6.55
142.16,6.97
142.68,7.61
143.21,7.92
143.73,7.43
144.25,6.51
144.77,6.04
145.29,6.65
145.81,8.17
146.33,9.82
146.85,10.82
147.37,10.84
147.89,10.85
148.42,10.35
148.94,10.09
149.46,10.32
149.98,10.45
150.50,9.91
151.02,9.43
151.54,9.88
152.06,10.68
152.58,10.80
153.11,10.58
153.63,10.83
154.15,11.07
154.67,10.71
155.19,10.35
155.71,9.33
156.23,9.35
156.75,10.33
157.27,11.46
157.79,12.38
158.32,13.22
158.84,14.47
159.36,16.41
159.88,18.38
160.40,19.41
160.92,19.37
161.44,19.16
161.96,19.61
162.48,20.07
163.01,20.53
163.53,21.17
164.05,21.23
164.57,20.72
165.09,20.01
165.61,20.11
166.13,21.20
166.65,22.11
167.17,22.06
167.69,21.90
168.22,23.01
168.74,25.62
169.26,28.82
169.78,30.61
170.30,32.40
170.82,36.90
171.34,41.24
171.86,42.54
172.38,39.15
172.91,32.55
173.43,25.74
173.95,20.65
174.47,17.35
174.99,15.04
175.51,13.54
176.03,13.30
176.55,14.02
177.07,14.61
177.59,14.54
178.12,14.47
178.64,13.83
179.16,13.14
179.68,12.49
180.20,11.66
180.72,10.88
181.24,11.14
181.76,12.92
182.28,14.97
182.81,15.97
183.33,16.16
183.85,16.23
184.37,16.25
184.89,16.18
185.41,16.11
185.93,16.19
186.45,16.61
186.97,16.78
187.49,16.51
188.02,16.40
188.54,16.87
189.06,17.92
189.58,19.37
190.10,20.95
190.62,22.56
191.14,24.35
191.66,26.15
192.18,27.32
192.71,27.56
193.23,27.81
193.75,28.48
194.27,29.91
194.79,31.63
195.31,33.10
195.83,34.43
196.35,35.40
196.87,35.22
197.39,34.18
197.92,33.68
198.44,34.11
198.96,34.82
199.48,36.88
200.00,40.12
201.00,43.36
201.59,54.94
202.17,66.80
202.76,71.74
203.34,66.36
203.93,53.84
204.51,40.58
205.10,30.66
205.69,24.55
206.27,21.72
206.86,21.73
207.44,23.22
208.03,24.00
208.62,23.00
209.20,22.07
209.79,21.14
210.37,19.72
210.96,19.06
211.54,19.01
212.13,19.37
212.72,19.92
213.30,20.46
213.89,20.76
214.47,20.71
215.06,20.87
215.64,22.04
216.23,24.01
216.82,25.66
217.40,26.32
217.99,26.98
218.57,28.80
219.16,30.63
219.75,31.38
220.33,31.71
220.92,32.80
221.50,34.40
222.09,35.65
222.67,36.68
223.26,38.24
223.85,40.33
224.43,42.24
225.02,43.72
225.60,44.46
226.19,45.19
226.78,47.08
227.36,49.44
227.95,51.61
228.53,52.77
229.12,52.78
229.70,52.34
230.29,53.02
230.88,56.44
231.46,62.52
232.05,69.62
232.63,76.06
233.22,80.58
233.80,83.26
234.39,84.40
234.98,85.53
235.56,88.34
236.15,91.89
236.73,96.17
237.32,100.81
237.91,105.23
238.49,109.10
239.08,112.74
239.66,117.20
240.25,123.85
240.83,135.06
241.42,153.60
242.01,178.54
242.59,190.52
243.18,202.51
243.76,215.77
244.35,213.57
244.93,199.71
245.52,183.37
246.11,172.37
246.69,169.10
247.28,171.93
247.86,179.11
248.45,190.54
249.04,206.30
249.62,225.22
250.21,245.24
250.79,265.07
251.38,275.18
251.96,285.30
252.55,307.52
253.14,332.60
253.72,361.13
254.31,394.74
254.89,435.55
255.48,485.19
256.07,543.92
256.65,608.80
257.24,673.31
257.82,731.56
258.41,783.89
258.99,838.40
259.58,873.36
260.17,908.31
260.75,1007.28
261.34,1140.81
261.92,1297.67
262.51,1453.65
263.09,1587.43
263.68,1692.87
264.27,1778.85
264.85,1863.51
265.44,1972.15
266.02,2135.02
266.61,2373.38
267.20,2681.12
267.78,3026.68
268.37,3203.62
268.95,3380.57
269.54,3742.19
270.12,4135.52
270.71,4571.49
271.30,5019.85
271.88,5435.61
272.47,5813.00
273.05,6192.05
273.64,6608.08
274.22,7057.86
274.81,7527.58
275.40,8028.17
275.98,8579.27
276.57,8900.93
277.15,9222.60
277.74,10201.02
278.33,12139.59
278.91,15718.28
279.50,20747.44
280.08,25553.58
280.67,27676.87
281.25,25613.20
281.84,20061.00
282.43,13385.25
283.01,7827.51
283.60,4267.56
284.18,2394.87
284.77,1529.28
285.36,1340.33
285.94,1151.39
286.53,988.48
287.11,921.61
287.70,898.85
288.28,893.10
288.87,888.57
289.46,877.38
290.04,858.24
290.63,834.84
291.21,810.37
291.80,781.32
292.38,739.46
292.97,681.32
293.56,647.59
294.14,613.85
294.73,549.74
295.31,498.38
295.90,461.79
296.49,436.38
297.07,416.29
297.66,396.65
298.24,376.21
298.83,356.63
299.41,339.44
300.00,325.13
301.00,314.44
301.70,308.69
302.39,308.89
303.09,312.17
303.79,315.44
304.49,328.00
305.18,345.50
305.88,366.80
306.58,390.23
307.27,412.34
307.97,430.48
308.67,447.61
309.37,471.81
310.06,510.40
310.76,563.67
311.46,622.86
312.15,674.12
312.85,690.26
313.55,706.40
314.25,721.17
314.94,737.26
315.64,781.34
316.34,868.31
317.04,985.42
317.73,1090.01
318.43,1128.29
319.13,1068.96
319.82,925.24
320.52,745.91
321.22,585.52
321.92,477.48
322.61,425.79
323.31,421.00
324.01,416.21
324.70,433.85
325.40,474.05
326.10,542.24
326.80,642.41
327.49,759.30
328.19,851.44
328.89,870.18
329.58,792.86
330.28,640.39
330.98,463.72
331.68,312.02
332.37,208.72
333.07,179.42
333.77,150.11
334.46,119.78
335.16,103.59
335.86,94.73
336.56,90.34
337.25,88.09
337.95,85.90
338.65,82.81
339.35,79.12
340.04,75.33
340.74,71.64
341.44,68.67
342.13,66.64
342.83,64.48
343.53,62.97
344.23,61.46
344.92,58.42
345.62,56.29
346.32,55.09
347.01,54.54
347.71,54.52
348.41,54.63
349.11,53.98
349.80,51.74
350.50,48.13
351.20,44.59
351.89,42.60
352.59,42.40
353.29,42.79
353.99,43.18
354.68,44.49
355.38,46.41
356.08,48.33
356.77,49.25
357.47,49.36
358.17,49.44
358.87,49.64
359.56,50.02
360.26,50.75
360.96,51.67
361.65,52.53
362.35,53.55
363.05,55.02
363.75,55.82
364.44,56.63
365.14,57.31
365.84,56.00
366.54,53.08
367.23,50.36
367.93,49.00
368.63,48.48
369.32,47.73
370.02,46.70
370.72,46.42
371.42,47.22
372.11,48.04
372.81,47.78
373.51,46.88
374.20,45.98
374.90,42.95
375.60,39.74
376.30,37.49
376.99,36.45
377.69,35.87
378.39,35.06
379.08,34.49
379.78,35.02
380.48,36.16
381.18,36.71
381.87,36.29
382.57,35.21
383.27,33.83
383.96,33.15
384.66,32.46
385.36,31.18
386.06,30.29
386.75,30.50
387.45,31.66
388.15,32.46
388.85,32.38
389.54,32.25
390.24,32.80
390.94,33.58
391.63,33.77
392.33,33.70
393.03,34.48
393.73,35.27
394.42,36.05
395.12,37.14
395.82,37.05
396.51,36.22
397.21,35.62
397.91,36.08
398.61,37.36
399.30,38.29
400.00,38.72
401.00,40.03
401.72,42.79
402.45,45.17
403.17,45.26
403.89,44.67
404.61,44.07
405.34,43.98
406.06,45.10
406.78,45.59
407.50,44.84
408.23,44.38
408.95,45.60
409.67,47.93
410.39,49.57
411.12,49.44
411.84,48.23
412.56,47.32
413.28,47.12
414.01,47.08
414.73,47.15
415.45,47.22
416.18,48.11
416.90,49.91
417.62,51.97
418.34,53.35
419.07,54.19
419.79,55.96
420.51,59.00
421.23,61.64
421.96,62.63
422.68,63.14
423.40,65.45
424.12,69.97
424.85,72.17
425.57,74.37
426.29,75.84
427.01,73.58
427.74,69.31
428.46,65.50
429.18,62.90
429.91,60.72
430.63,58.67
431.35,57.47
432.07,57.64
432.80,59.18
433.52,61.67
434.24,64.15
434.96,65.53
435.69,65.50
436.41,65.48
437.13,65.20
437.85,66.23
438.58,69.02
439.30,73.37
440.02,78.43
440.74,82.01
441.47,81.55
442.19,76.30
442.91,68.43
443.64,61.69
444.36,57.93
445.08,55.99
445.80,55.24
446.53,54.49
447.25,53.46
447.97,53.58
448.69,55.13
449.42,57.61
450.14,60.46
450.86,63.47
451.58,66.42
452.31,68.88
453.03,70.92
453.75,73.66
454.47,78.06
455.20,83.42
455.92,87.75
456.64,88.92
457.36,90.09
458.09,91.91
458.81,96.03
459.53,104.61
460.26,117.37
460.98,131.04
461.70,140.42
462.42,140.36
463.15,128.40
463.87,107.84
464.59,86.46
465.31,69.90
466.04,58.39
466.76,54.68
467.48,50.98
468.20,48.21
468.93,49.34
469.65,51.48
470.37,52.40
471.09,51.93
471.82,51.05
472.54,50.68
473.26,50.96
473.99,51.05
474.71,49.87
475.43,47.66
476.15,45.79
476.88,44.55
477.60,43.90
478.32,43.25
479.04,41.85
479.77,40.66
480.49,39.67
481.21,39.28
481.93,39.77
482.66,40.13
483.38,39.47
484.10,38.39
484.82,37.84
485.55,38.09
486.27,38.84
486.99,39.51
487.72,39.60
488.44,39.69
489.16,39.47
489.88,39.50
490.61,40.67
491.33,43.36
492.05,46.87
492.77,49.90
493.50,51.00
494.22,49.01
494.94,44.32
495.66,39.24
496.39,35.90
497.11,33.96
497.83,32.06
498.55,31.24
499.28,30.43
500.00,29.95
501.00,29.93
502.01,29.27
503.02,27.99
504.03,26.73
505.04,26.27
506.05,27.05
507.06,28.07
508.07,27.69
509.08,25.54
510.09,22.90
511.10,21.71
512.11,22.04
513.12,22.36
514.13,23.05
515.14,22.49
516.15,21.69
517.16,22.19
518.17,24.00
519.18,25.69
520.19,26.25
521.20,26.41
522.21,27.14
523.22,28.31
524.23,29.41
525.24,29.92
526.26,29.15
527.27,28.19
528.28,27.23
529.29,25.59
530.30,25.08
531.31,24.83
532.32,24.20
533.33,24.17
534.34,25.65
535.35,27.95
536.36,29.82
537.37,30.89
538.38,31.26
539.39,31.18
540.40,31.13
541.41,31.34
542.42,31.56
543.43,32.77
544.44,35.38
545.45,39.57
546.46,44.46
547.47,49.04
548.48,52.85
549.49,56.07
550.50,59.54
551.51,63.44
552.52,66.63
553.53,69.00
554.54,72.64
555.55,79.00
556.56,82.91
557.57,86.82
558.58,92.85
559.59,93.52
560.60,86.74
561.61,73.52
562.62,57.99
563.63,44.61
564.64,35.13
565.65,29.02
566.66,25.47
567.67,23.67
568.68,22.92
569.69,22.78
570.70,22.72
571.71,22.65
572.72,22.26
573.73,22.01
574.74,21.84
575.76,21.23
576.77,20.37
577.78,19.57
578.79,18.95
579.80,19.21
580.81,20.84
581.82,22.93
582.83,24.32
583.84,24.85
584.85,24.99
585.86,24.94
586.87,24.88
587.88,24.55
588.89,24.48
589.90,24.74
590.91,24.80
591.92,24.69
592.93,24.80
593.94,25.04
594.95,25.52
595.96,26.47
596.97,27.22
597.98,26.96
598.99,25.83
600.00,25.25
601.00,24.67
602.18,24.13
603.36,24.16
604.54,24.49
605.71,25.06
606.89,25.83
608.07,26.84
609.25,28.31
610.43,29.83
611.61,30.87
612.79,31.87
613.96,33.31
615.14,34.73
616.32,35.65
617.50,36.01
618.68,36.37
619.86,37.34
621.04,38.57
622.21,39.86
623.39,40.95
624.57,41.67
625.75,42.23
626.93,43.15
628.11,44.57
629.29,46.31
630.46,48.17
631.64,50.18
632.82,52.60
634.00,53.86
635.18,55.12
636.36,57.15
637.54,59.09
638.71,61.71
639.89,65.15
641.07,69.12
642.25,72.97
643.43,75.41
644.61,75.10
645.79,71.75
646.96,66.27
648.14,60.11
649.32,54.82
650.50,51.41
651.68,50.53
652.86,49.66
654.04,48.30
655.21,46.83
656.39,46.06
657.57,46.17
658.75,46.34
659.93,46.84
661.11,48.77
662.29,51.69
663.46,53.69
664.64,53.73
665.82,52.87
667.00,52.65
668.18,52.98
669.36,53.31
670.54,54.12
671.71,54.57
672.89,54.59
674.07,54.21
675.25,53.68
676.43,53.64
677.61,54.65
678.79,56.56
679.96,58.32
681.14,58.82
682.32,58.10
683.50,57.26
684.68,57.05
685.86,56.85
687.04,56.68
688.21,56.83
689.39,57.43
690.57,57.77
691.75,57.18
692.93,56.04
694.11,55.29
695.29,55.08
696.46,54.77
697.64,54.32
698.82,54.60
700.00,55.75
701.00,56.58
702.98,56.25
704.96,55.92
706.94,53.81
708.92,51.25
710.90,49.13
712.88,47.52
714.86,46.22
716.84,45.19
718.82,44.20
720.80,43.06
722.78,41.80
724.76,40.33
726.74,38.84
728.72,37.97
730.70,37.81
732.68,37.65
734.66,37.09
736.64,36.12
738.62,35.54
740.60,35.78
742.58,36.37
744.56,37.03
746.54,37.81
748.52,38.24
750.50,37.71
752.48,36.73
754.46,36.57
756.44,37.60
758.42,39.02
760.40,39.52
762.38,40.02
764.36,40.27
766.34,40.01
768.32,40.11
770.30,41.35
772.28,43.25
774.26,44.55
776.24,44.89
778.22,45.38
780.20,46.47
782.18,47.25
784.16,47.16
786.14,46.41
788.12,45.99
790.10,45.56
792.08,45.56
794.06,46.42
796.04,46.70
798.02,45.77
800.00,44.70
801.00,44.08
803.36,43.25
805.71,42.53
808.07,42.81
810.43,43.34
812.79,42.98
815.14,41.93
817.50,40.45
819.86,39.38
822.21,38.31
824.57,35.87
826.93,33.98
829.29,33.28
831.64,33.70
834.00,34.40
836.36,34.90
838.71,35.60
841.07,36.20
843.43,35.32
845.79,32.93
848.14,30.90
850.50,30.77
852.86,31.50
855.21,32.23
857.57,33.68
859.93,34.01
862.29,33.26
864.64,32.01
867.00,30.97
869.36,30.52
871.71,29.96
874.07,28.36
876.43,26.08
878.79,24.39
881.14,23.60
883.50,22.97
885.86,22.63
888.21,22.81
890.57,23.00
892.93,23.50
895.29,23.72
897.64,24.23
900.00,25.27
901.00,26.28
904.67,26.97
908.33,27.37
912.00,27.62
915.67,27.81
919.33,27.47
923.00,25.92
926.67,23.68
930.33,22.98
934.00,22.28
937.67,22.15
941.33,22.09
945.00,21.43
948.67,21.13
952.33,21.67
956.00,22.06
959.67,21.65
963.33,21.10
967.00,21.18
970.67,21.49
974.33,21.12
978.00,19.87
981.67,18.41
985.33,18.07
989.00,17.72
992.67,18.19
996.33,19.27
1000.00,20.40
1001.00,21.18
1006.10,20.74
1011.21,18.83
1016.31,16.96
1021.41,16.47
1026.51,16.77
1031.62,16.66
1036.72,15.97
1041.82,15.16
1046.92,14.88
1052.03,14.59
1057.13,14.17
1062.23,13.66
1067.33,13.52
1072.44,14.05
1077.54,14.62
1082.64,15.01
1087.74,15.47
1092.85,15.70
1097.95,15.59
1103.05,15.48
1108.15,15.29
1113.26,14.84
1118.36,14.37
1123.46,14.28
1128.56,14.20
1133.67,14.57
1138.77,15.28
1143.87,15.40
1148.97,14.77
1154.08,14.32
1159.18,14.48
1164.28,15.16
1169.38,16.35
1174.49,17.34
1179.59,17.32
1184.69,16.73
1189.79,16.46
1194.90,16.54
1200.00,16.63
1201.00,16.79
1210.06,16.66
1219.12,16.00
1228.18,14.50
1237.24,12.68
1246.30,11.69
1255.36,11.89
1264.42,12.61
1273.48,13.25
1282.55,13.75
1291.61,14.28
1300.67,14.78
1309.73,14.77
1318.79,14.37
1327.85,13.97
1336.91,12.92
1345.97,12.45
1355.03,12.78
1364.09,13.28
1373.15,13.61
1382.21,14.73
1391.27,17.34
1400.33,19.90
1409.39,20.51
1418.45,19.48
1427.52,18.09
1436.58,16.81
1445.64,16.37
1454.70,15.93
1463.76,15.87
1472.82,16.45
1481.88,16.99
1490.94,17.29
1500.00,17.73
1501.00,18.09
1510.24,17.79
1519.48,17.26
1528.72,17.13
1537.96,17.37
1547.20,18.05
1556.44,19.37
1565.69,20.80
1574.93,21.42
1584.17,22.04
1593.41,23.40
1602.65,24.52
1611.89,24.33
1621.13,22.72
1630.37,20.80
1639.61,19.60
1648.85,19.02
1658.09,18.38
1667.33,17.97
1676.57,18.55
1685.81,19.59
1695.06,20.19
1704.30,20.21
1713.54,20.23
1722.78,19.95
1732.02,19.80
1741.26,20.26
1750.50,21.26
1759.74,22.51
1768.98,23.56
1778.22,23.58
1787.46,22.54
1796.70,21.57
1805.94,21.34
1815.19,21.32
1824.43,20.73
1833.67,19.43
1842.91,18.72
1852.15,18.01
1861.39,17.07
1870.63,16.76
1879.87,16.90
1889.11,17.27
1898.35,17.74
1907.59,18.37
1916.83,19.15
1926.07,19.73
1935.31,19.85
1944.56,19.66
1953.80,19.21
1963.04,18.38
1972.28,17.86
1981.52,17.35
1990.76,16.72
2000.00,17.13
2001.00,18.22
2018.22,18.63
2035.45,17.66
2052.67,16.33
2069.90,16.02
2087.12,16.64
2104.34,16.83
2121.57,16.11
2138.79,15.67
2156.02,16.12
2173.24,16.50
2190.47,16.25
2207.69,16.00
2224.91,15.09
2242.14,14.92
2259.36,16.00
2276.59,17.22
2293.81,17.17
2311.03,16.40
2328.26,16.18
2345.48,15.98
2362.71,14.87
2379.93,13.71
2397.16,13.71
2414.38,14.71
2431.60,15.30
2448.83,15.88
2466.05,16.52
2483.28,16.34
2500.50,15.87
2517.72,15.82
2534.95,15.96
2552.17,15.73
2569.40,15.04
2586.62,13.94
2603.84,12.63
2621.07,11.91
2638.29,12.52
2655.52,13.83
2672.74,14.18
2689.97,14.52
2707.19,14.39
2724.41,14.16
2741.64,13.85
2758.86,13.16
2776.09,12.71
2793.31,13.11
2810.53,13.74
2827.76,13.91
2844.98,14.05
2862.21,14.61
2879.43,15.22
2896.66,15.11
2913.88,14.19
2931.10,13.73
2948.33,13.28
2965.55,12.86
2982.78,12.42
3000.00,11.44
3001.00,10.26
3025.99,9.78
3050.98,10.15
3075.98,11.03
3100.97,12.26
3125.96,13.31
3150.95,13.45
3175.94,13.09
3200.93,13.15
3225.93,13.38
3250.92,13.60
3275.91,13.79
3300.90,13.70
3325.89,13.87
3350.88,14.09
3375.87,13.35
3400.87,11.90
3425.86,11.41
3450.85,12.30
3475.84,13.29
3500.83,13.58
3525.82,13.21
3550.82,12.65
3575.81,12.80
3600.80,13.29
3625.79,13.77
3650.78,14.63
3675.77,14.61
3700.77,13.50
3725.76,11.92
3750.75,11.33
3775.74,12.30
3800.73,13.49
3825.73,13.25
3850.72,11.47
3875.71,9.48
3900.70,8.87
3925.69,9.97
3950.68,10.69
3975.68,11.42
4000.67,11.69
4025.66,10.76
4050.65,10.03
4075.64,10.45
4100.63,11.50
4125.62,11.95
4150.62,11.51
4175.61,10.90
4200.60,10.43
4225.59,9.85
4250.58,9.38
4275.58,9.57
4300.57,10.38
