Size (bp),Intensity
0.58,1481.53
1.00,1202.99
2.00,775.52
2.42,407.77
2.84,190.54
3.26,96.75
3.68,66.23
4.10,62.98
4.52,59.72
4.94,61.33
5.36,65.13
5.79,67.06
6.21,64.05
6.63,56.19
7.05,46.91
7.47,39.63
7.89,34.42
8.31,28.76
8.73,21.77
9.15,15.68
9.57,14.09
9.99,12.51
10.41,11.43
10.83,10.81
11.25,10.52
11.67,10.96
12.09,11.36
12.52,10.38
12.94,8.10
13.36,6.31
13.78,5.80
14.20,5.21
14.62,3.85
15.04,3.10
15.46,3.51
15.88,3.92
16.30,5.56
16.72,6.89
17.14,7.29
17.56,6.85
17.98,6.25
18.40,6.03
18.82,6.55
19.24,8.15
19.67,10.49
20.09,12.14
20.51,12.12
20.93,11.61
21.35,11.10
21.77,9.75
22.19,8.30
22.61,7.24
23.03,6.56
23.45,5.45
23.87,3.91
24.29,2.76
24.71,2.37
25.13,2.79
25.55,4.08
25.97,5.28
26.39,5.16
26.82,5.04
27.24,3.96
27.66,4.04
28.08,5.28
28.50,5.78
28.92,4.83
29.34,3.54
29.76,3.06
30.18,3.62
30.60,4.67
31.02,5.33
31.44,5.38
31.86,5.35
32.28,5.38
32.70,5.40
33.12,5.25
33.55,5.10
33.97,5.32
34.39,5.55
34.81,5.50
35.23,6.00
35.65,7.69
36.07,9.54
36.49,10.51
36.91,10.88
37.33,10.93
37.75,10.65
38.17,10.37
38.59,9.58
39.01,9.35
39.43,9.59
39.85,9.71
40.27,9.78
40.70,10.13
41.12,10.63
41.54,11.10
41.96,11.62
42.38,11.97
42.80,11.99
43.22,12.21
43.64,12.65
44.06,13.08
44.48,14.51
44.90,16.26
45.32,17.69
45.74,17.46
46.16,15.11
46.58,11.84
47.00,8.96
47.42,7.44
47.85,7.97
48.27,10.04
48.69,11.80
49.11,12.06
49.53,12.32
49.95,12.44
50.37,12.83
50.79,13.19
51.21,13.71
51.63,14.88
52.05,16.42
52.47,17.83
52.89,18.72
53.31,18.76
53.73,18.32
54.15,18.36
54.58,19.50
55.00,20.61
55.42,21.72
55.84,24.36
56.26,26.82
56.68,29.31
57.10,32.47
57.52,36.23
57.94,40.55
58.36,46.96
58.78,56.24
59.20,64.78
59.62,67.31
60.04,62.61
60.46,58.39
60.88,54.16
61.30,46.84
61.73,42.90
62.15,40.61
62.57,37.53
62.99,33.61
63.41,29.93
63.83,26.99
64.25,24.76
64.67,22.72
65.09,20.05
65.51,16.69
65.93,15.25
66.35,13.81
66.77,12.36
67.19,12.03
67.61,11.97
68.03,11.55
68.45,10.66
68.88,9.98
69.30,10.09
69.72,10.63
70.14,11.10
70.56,11.26
70.98,10.71
71.40,9.78
71.82,9.59
72.24,9.41
72.66,9.77
73.08,9.91
73.50,8.87
73.92,7.37
74.34,7.31
74.76,8.81
75.18,10.27
75.61,10.95
76.03,11.07
76.45,10.56
76.87,9.52
77.29,9.17
77.71,8.82
78.13,8.68
78.55,7.82
78.97,5.48
79.39,3.30
79.81,3.19
80.23,4.43
80.65,5.45
81.07,6.46
81.49,7.61
81.91,7.86
82.33,7.50
82.76,7.80
83.18,8.20
83.60,8.60
84.02,9.26
84.44,9.97
84.86,10.66
85.28,10.94
85.70,11.13
86.12,11.51
86.54,11.17
86.96,9.57
87.38,8.22
87.80,8.60
88.22,9.64
88.64,9.57
89.06,9.50
89.48,8.33
89.91,7.79
90.33,8.70
90.75,10.26
91.17,11.25
91.59,11.06
92.01,9.94
92.43,8.68
92.85,8.06
93.27,8.23
93.69,8.62
94.11,8.80
94.53,9.00
94.95,9.19
95.37,10.18
95.79,11.40
96.21,12.58
96.64,13.50
97.06,13.74
97.48,13.45
97.90,13.29
98.32,13.25
98.74,12.74
99.16,12.02
99.58,12.16
100.00,12.68
101.00,13.20
101.52,13.84
102.04,13.70
102.56,13.64
103.08,13.55
103.61,12.60
104.13,11.29
104.65,10.64
105.17,10.61
105.69,10.82
106.21,11.48
106.73,13.04
107.25,15.15
107.77,15.91
108.29,16.67
108.82,17.00
109.34,16.52
109.86,15.73
110.38,14.92
110.90,14.48
111.42,14.60
111.94,14.74
112.46,14.41
112.98,14.01
113.51,13.98
114.03,13.55
114.55,12.65
115.07,11.75
115.59,9.57
116.11,9.01
116.63,10.34
117.15,12.05
117.67,13.28
118.19,14.46
118.72,15.84
119.24,17.07
119.76,17.73
120.28,17.78
120.80,17.44
121.32,17.01
121.84,16.59
122.36,15.23
122.88,14.11
123.41,13.77
123.93,14.08
124.45,15.01
124.97,16.53
125.49,17.97
126.01,18.56
126.53,18.36
127.05,17.93
127.57,17.70
128.09,17.48
128.62,17.05
129.14,16.62
129.66,15.25
130.18,14.25
130.70,13.93
131.22,14.14
131.74,15.06
132.26,16.61
132.78,17.93
133.31,18.44
133.83,18.60
134.35,18.73
134.87,18.55
135.39,18.41
135.91,18.27
136.43,18.55
136.95,19.27
137.47,19.75
137.99,19.75
138.52,19.71
139.04,20.00
139.56,20.10
140.08,19.06
140.60,17.39
141.12,16.67
141.64,17.08
142.16,17.44
142.68,17.47
143.21,17.49
143.73,17.70
144.25,17.72
144.77,17.27
145.29,17.29
145.81,18.70
146.33,21.09
146.85,23.25
147.37,24.47
147.89,24.83
148.42,24.59
148.94,24.46
149.46,25.06
149.98,25.65
150.50,28.31
151.02,31.13
151.54,32.79
152.06,33.32
152.58,33.70
153.11,34.37
153.63,35.00
154.15,35.47
154.67,36.29
155.19,37.73
155.71,39.45
156.23,41.16
156.75,42.06
157.27,42.96
157.79,44.94
158.32,46.78
158.84,47.81
159.36,47.81
159.88,47.16
160.40,46.13
160.92,44.90
161.44,44.34
161.96,45.22
162.48,46.56
163.01,46.94
163.53,46.81
164.05,46.68
164.57,47.01
165.09,48.19
165.61,49.33
166.13,49.69
166.65,49.85
167.17,50.74
167.69,52.12
168.22,53.52
168.74,55.35
169.26,57.88
169.78,60.40
170.30,61.30
170.82,62.20
171.34,63.75
171.86,65.92
172.38,68.49
172.91,70.66
173.43,72.25
173.95,73.19
174.47,73.89
174.99,75.57
175.51,78.35
176.03,81.15
176.55,84.26
177.07,89.11
177.59,92.24
178.12,95.36
178.64,101.18
179.16,105.62
179.68,108.90
180.20,111.53
180.72,114.49
181.24,118.80
181.76,124.20
182.28,129.60
182.81,134.94
183.33,140.77
183.85,147.00
184.37,150.15
184.89,153.30
185.41,159.81
185.93,166.47
186.45,172.83
186.97,178.64
187.49,183.99
188.02,189.26
188.54,194.89
189.06,200.84
189.58,206.81
190.10,212.33
190.62,216.70
191.14,220.03
191.66,221.90
192.18,223.76
192.71,228.80
193.23,234.10
193.75,238.37
194.27,242.51
194.79,248.82
195.31,257.86
195.83,268.13
196.35,278.41
196.87,288.46
197.39,298.06
197.92,306.84
198.44,311.15
198.96,315.45
199.48,325.38
200.00,336.85
201.00,348.90
201.59,361.48
202.17,375.30
202.76,389.83
203.34,403.46
203.93,415.60
204.51,427.29
205.10,439.55
205.69,452.28
206.27,464.80
206.86,470.81
207.44,476.82
208.03,488.89
208.62,501.65
209.20,515.00
209.79,528.30
210.37,541.32
210.96,554.14
211.54,567.01
212.13,580.72
212.72,595.53
213.30,610.66
213.89,625.68
214.47,633.36
215.06,641.04
215.64,657.33
216.23,675.21
216.82,694.94
217.40,715.74
217.99,736.29
218.57,755.59
219.16,774.06
219.75,793.16
220.33,812.41
220.92,830.14
221.50,847.67
222.09,857.64
222.67,867.61
223.26,888.72
223.85,907.96
224.43,925.34
225.02,943.37
225.60,963.91
226.19,986.28
226.78,1008.16
227.36,1029.07
227.95,1051.06
228.53,1075.05
229.12,1099.80
229.70,1124.16
230.29,1136.30
230.88,1148.44
231.46,1173.89
232.05,1200.73
232.63,1227.94
233.22,1255.02
233.80,1282.57
234.39,1311.09
234.98,1339.90
235.56,1367.36
236.15,1392.96
236.73,1418.60
237.32,1447.13
237.91,1463.92
238.49,1480.71
239.08,1519.22
239.66,1559.45
240.25,1598.30
240.83,1635.88
241.42,1673.56
242.01,1710.64
242.59,1745.47
243.18,1777.55
243.76,1806.68
244.35,1832.92
244.93,1857.57
245.52,1882.22
246.11,1895.14
246.69,1908.06
247.28,1935.13
247.86,1960.99
248.45,1983.10
249.04,2001.69
249.62,2019.53
250.21,2039.08
250.79,2058.90
251.38,2075.57
251.96,2088.70
252.55,2100.70
253.14,2114.00
253.72,2122.00
254.31,2129.99
254.89,2148.74
255.48,2169.79
256.07,2193.45
256.65,2219.85
257.24,2247.22
257.82,2273.32
258.41,2297.48
258.99,2319.98
259.58,2340.89
260.17,2360.52
260.75,2379.60
261.34,2399.01
261.92,2409.16
262.51,2419.31
263.09,2439.77
263.68,2459.14
264.27,2477.24
264.85,2494.56
265.44,2512.00
266.02,2530.58
266.61,2549.91
267.20,2567.43
267.78,2580.19
268.37,2587.81
268.95,2592.03
269.54,2592.90
270.12,2593.77
270.71,2593.39
271.30,2593.29
271.88,2596.70
272.47,2604.75
273.05,2616.03
273.64,2628.08
274.22,2639.69
274.81,2652.27
275.40,2666.57
275.98,2679.61
276.57,2688.22
277.15,2690.59
277.74,2692.96
278.33,2695.73
278.91,2696.98
279.50,2697.23
280.08,2697.84
280.67,2699.16
281.25,2701.08
281.84,2704.88
282.43,2712.29
283.01,2724.76
283.60,2743.22
284.18,2765.93
284.77,2788.07
285.36,2796.40
285.94,2804.73
286.53,2813.67
287.11,2816.44
287.70,2816.82
288.28,2817.44
288.87,2819.26
289.46,2823.26
290.04,2829.80
290.63,2837.36
291.21,2844.91
291.80,2853.52
292.38,2863.56
292.97,2868.28
293.56,2873.00
294.14,2881.00
294.73,2889.32
295.31,2898.99
295.90,2910.03
296.49,2922.61
297.07,2935.55
297.66,2947.10
298.24,2956.76
298.83,2963.45
299.41,2966.06
300.00,2966.78
301.00,2968.96
301.70,2970.51
302.39,2972.07
303.09,2972.87
303.79,2970.59
304.49,2967.23
305.18,2963.41
305.88,2958.04
306.58,2951.79
307.27,2947.04
307.97,2944.73
308.67,2944.20
309.37,2944.43
310.06,2942.63
310.76,2938.62
311.46,2934.60
312.15,2918.31
312.85,2895.83
313.55,2871.80
314.25,2850.08
314.94,2831.59
315.64,2816.01
316.34,2803.80
317.04,2794.08
317.73,2784.04
318.43,2772.29
319.13,2759.64
319.82,2746.54
320.52,2739.69
321.22,2732.83
321.92,2719.66
322.61,2711.63
323.31,2715.67
324.01,2736.64
324.70,2775.05
325.40,2826.27
326.10,2877.65
326.80,2910.24
327.49,2910.31
328.19,2879.28
328.89,2832.75
329.58,2811.93
330.28,2791.11
330.98,2767.60
331.68,2762.56
332.37,2768.51
333.07,2777.03
333.77,2779.63
334.46,2768.80
335.16,2743.71
335.86,2711.26
336.56,2679.33
337.25,2652.50
337.95,2631.86
338.65,2623.44
339.35,2615.02
340.04,2599.57
340.74,2585.92
341.44,2573.97
342.13,2561.24
342.83,2546.44
343.53,2530.81
344.23,2515.33
344.92,2500.06
345.62,2485.69
346.32,2474.41
347.01,2469.79
347.71,2474.78
348.41,2482.06
349.11,2489.34
349.80,2510.27
350.50,2531.93
351.20,2547.52
351.89,2551.84
352.59,2543.69
353.29,2526.14
353.99,2504.02
354.68,2480.94
355.38,2459.29
356.08,2440.28
356.77,2423.42
357.47,2415.54
358.17,2407.66
358.87,2391.90
359.56,2375.32
360.26,2358.64
360.96,2343.33
361.65,2330.10
362.35,2319.22
363.05,2310.84
363.75,2304.14
364.44,2298.01
365.14,2292.05
365.84,2285.60
366.54,2277.49
367.23,2272.45
367.93,2267.40
368.63,2255.78
369.32,2242.81
370.02,2229.24
370.72,2217.46
371.42,2210.04
372.11,2207.20
372.81,2207.36
373.51,2209.64
374.20,2213.49
374.90,2217.12
375.60,2219.35
376.30,2220.18
376.99,2221.00
377.69,2222.81
378.39,2224.46
379.08,2225.01
379.78,2224.01
380.48,2222.97
381.18,2223.97
381.87,2226.92
382.57,2229.90
383.27,2230.92
383.96,2228.82
384.66,2223.34
385.36,2215.19
386.06,2210.81
386.75,2206.43
387.45,2199.84
388.15,2197.95
388.85,2202.89
389.54,2215.88
390.24,2235.75
390.94,2258.83
391.63,2281.06
392.33,2299.61
393.03,2313.27
393.73,2321.97
394.42,2325.55
395.12,2324.82
395.82,2324.09
396.51,2318.89
397.21,2311.45
397.91,2302.41
398.61,2292.16
399.30,2281.79
400.00,2271.81
401.00,2261.17
401.72,2249.16
402.45,2235.53
403.17,2218.35
403.89,2194.81
404.61,2179.47
405.34,2164.14
406.06,2127.84
406.78,2088.41
407.50,2049.68
408.23,2016.57
408.95,1991.95
409.67,1974.64
410.39,1961.19
411.12,1948.52
411.84,1935.19
412.56,1921.54
413.28,1908.81
414.01,1897.36
414.73,1891.78
415.45,1886.19
416.18,1875.12
416.90,1865.52
417.62,1858.48
418.34,1854.37
419.07,1853.21
419.79,1853.61
420.51,1853.98
421.23,1853.95
421.96,1853.40
422.68,1852.08
423.40,1850.27
424.12,1849.12
424.85,1847.96
425.57,1844.17
426.29,1838.18
427.01,1831.06
427.74,1825.52
428.46,1824.26
429.18,1828.24
429.91,1836.79
430.63,1848.56
431.35,1861.19
432.07,1870.61
432.80,1872.55
433.52,1865.92
434.24,1860.00
434.96,1854.08
435.69,1841.00
436.41,1827.77
437.13,1814.38
437.85,1801.35
438.58,1788.33
439.30,1774.78
440.02,1762.60
440.74,1755.43
441.47,1756.12
442.19,1764.84
442.91,1777.84
443.64,1783.52
444.36,1789.21
445.08,1794.61
445.80,1792.45
446.53,1783.34
447.25,1770.25
447.97,1757.17
448.69,1746.55
449.42,1737.82
450.14,1728.26
450.86,1715.45
451.58,1699.48
452.31,1681.66
453.03,1661.83
453.75,1650.80
454.47,1639.77
455.20,1617.61
455.92,1598.72
456.64,1584.96
457.36,1575.80
458.09,1570.23
458.81,1567.95
459.53,1568.19
460.26,1569.02
460.98,1569.27
461.70,1569.35
462.42,1569.15
463.15,1568.27
463.87,1567.39
464.59,1563.64
465.31,1558.61
466.04,1553.29
466.76,1549.37
467.48,1548.03
468.20,1548.70
468.93,1551.41
469.65,1557.05
470.37,1564.09
471.09,1568.18
471.82,1565.56
472.54,1555.66
473.26,1548.50
473.99,1541.35
474.71,1526.51
475.43,1513.26
476.15,1502.40
476.88,1495.03
477.60,1491.30
478.32,1489.60
479.04,1489.21
479.77,1490.90
480.49,1494.17
481.21,1497.33
481.93,1500.05
482.66,1501.62
483.38,1503.18
484.10,1506.43
484.82,1508.36
485.55,1507.78
486.27,1502.68
486.99,1489.65
487.72,1468.20
488.44,1442.68
489.16,1417.97
489.88,1396.60
490.61,1379.99
491.33,1368.23
492.05,1363.60
492.77,1358.98
493.50,1349.50
494.22,1339.45
494.94,1329.80
495.66,1319.77
496.39,1308.14
497.11,1296.20
497.83,1286.59
498.55,1280.35
499.28,1276.35
500.00,1272.67
501.00,1268.76
502.01,1265.75
503.02,1264.52
504.03,1263.30
505.04,1258.99
506.05,1251.80
507.06,1243.03
508.07,1234.23
509.08,1227.42
510.09,1224.36
511.10,1224.05
512.11,1224.12
513.12,1224.04
514.13,1224.33
515.14,1224.08
516.15,1222.65
517.16,1221.21
518.17,1214.46
519.18,1204.78
520.19,1194.47
521.20,1185.31
522.21,1177.61
523.22,1170.76
524.23,1164.67
525.24,1160.72
526.26,1160.64
527.27,1163.97
528.28,1167.90
529.29,1170.95
530.30,1172.80
531.31,1174.65
532.32,1180.77
533.33,1189.80
534.34,1201.55
535.35,1214.07
536.36,1224.00
537.37,1229.66
538.38,1231.44
539.39,1229.25
540.40,1222.73
541.41,1213.18
542.42,1202.61
543.43,1196.80
544.44,1190.99
545.45,1176.91
546.46,1161.23
547.47,1147.06
548.48,1135.22
549.49,1123.77
550.50,1111.89
551.51,1099.52
552.52,1085.85
553.53,1071.65
554.54,1058.80
555.55,1047.50
556.56,1037.21
557.57,1032.47
558.58,1027.73
559.59,1018.71
560.60,1010.25
561.61,1003.05
562.62,997.08
563.63,991.35
564.64,985.73
565.65,981.07
566.66,976.97
567.67,972.10
568.68,966.38
569.69,960.16
570.70,956.71
571.71,953.25
572.72,945.84
573.73,938.28
574.74,930.25
575.76,921.93
576.77,914.29
577.78,907.54
578.79,901.13
579.80,894.88
580.81,888.32
581.82,880.59
582.83,872.31
583.84,868.77
584.85,865.23
585.86,859.64
586.87,853.94
587.88,846.99
588.89,839.46
589.90,833.01
590.91,828.94
591.92,826.99
592.93,825.48
593.94,823.34
594.95,821.39
595.96,821.06
596.97,822.69
597.98,823.80
598.99,824.91
600.00,825.52
601.00,823.20
602.18,818.26
603.36,812.06
604.54,805.74
605.71,799.02
606.89,790.96
608.07,782.11
609.25,774.06
610.43,766.80
611.61,758.48
612.79,753.51
613.96,748.54
615.14,739.11
616.32,731.95
617.50,726.35
618.68,720.96
619.86,715.65
621.04,710.65
622.21,705.70
623.39,700.47
624.57,694.96
625.75,689.20
626.93,683.67
628.11,679.48
629.29,678.00
630.46,676.52
631.64,673.07
632.82,668.04
634.00,661.09
635.18,651.72
636.36,640.09
637.54,627.35
638.71,615.15
639.89,605.23
641.07,597.42
642.25,589.61
643.43,581.14
644.61,577.29
645.79,573.44
646.96,567.55
648.14,563.43
649.32,560.04
650.50,555.91
651.68,550.74
652.86,545.02
654.04,538.42
655.21,530.73
656.39,522.91
657.57,515.63
658.75,508.38
659.93,500.52
661.11,496.52
662.29,492.51
663.46,485.06
664.64,478.06
665.82,471.32
667.00,464.74
668.18,457.93
669.36,450.95
670.54,444.36
671.71,438.07
672.89,431.49
674.07,424.49
675.25,417.45
676.43,414.07
677.61,410.69
678.79,404.30
679.96,398.71
681.14,394.23
682.32,389.81
683.50,384.20
684.68,378.45
685.86,374.90
687.04,373.49
688.21,371.76
689.39,367.98
690.57,362.28
691.75,359.09
692.93,355.89
694.11,350.38
695.29,345.82
696.46,340.67
697.64,334.52
698.82,328.61
700.00,323.44
701.00,318.51
702.98,313.98
704.96,310.65
706.94,308.88
708.92,307.96
710.90,306.57
712.88,305.32
714.86,304.07
716.84,300.97
718.82,297.91
720.80,295.10
722.78,292.51
724.76,289.76
726.74,286.11
728.72,281.61
730.70,277.50
732.68,274.22
734.66,270.93
736.64,267.48
738.62,265.79
740.60,264.11
742.58,260.00
744.56,255.07
746.54,250.66
748.52,247.26
750.50,244.59
752.48,243.02
754.46,241.96
756.44,239.66
758.42,235.77
760.40,231.70
762.38,228.70
764.36,226.67
766.34,225.58
768.32,224.49
770.30,221.71
772.28,219.10
774.26,217.01
776.24,214.88
778.22,212.54
780.20,210.18
782.18,207.51
784.16,204.43
786.14,201.31
788.12,198.44
790.10,196.21
792.08,195.33
794.06,194.45
796.04,192.25
798.02,189.58
800.00,187.00
801.00,184.13
803.36,180.43
805.71,176.56
808.07,173.58
810.43,171.25
812.79,168.39
815.14,164.71
817.50,160.82
819.86,157.45
822.21,156.24
824.57,155.03
826.93,153.27
829.29,151.43
831.64,148.76
834.00,145.07
836.36,141.45
838.71,138.83
841.07,136.58
843.43,134.05
845.79,131.82
848.14,130.44
850.50,129.50
852.86,128.91
855.21,128.32
857.57,126.65
859.93,124.96
862.29,123.61
864.64,122.27
867.00,120.85
869.36,119.79
871.71,119.26
874.07,118.64
876.43,117.06
878.79,114.74
881.14,112.65
883.50,111.83
885.86,111.01
888.21,109.68
890.57,109.15
892.93,109.44
895.29,109.35
897.64,108.01
900.00,105.96
901.00,103.93
904.67,101.77
908.33,99.46
912.00,97.57
915.67,96.35
919.33,95.87
923.00,96.03
926.67,96.19
930.33,96.95
934.00,97.74
937.67,97.80
941.33,95.96
945.00,92.54
948.67,89.92
952.33,89.64
956.00,90.80
959.67,91.51
963.33,90.65
967.00,88.61
970.67,87.79
974.33,86.97
978.00,86.74
981.67,86.91
985.33,86.50
989.00,86.06
992.67,85.72
996.33,84.71
1000.00,83.46
1001.00,83.04
1006.10,82.95
1011.21,81.75
1016.31,79.71
1021.41,78.49
1026.51,78.34
1031.62,78.18
1036.72,77.64
1041.82,77.26
1046.92,78.00
1052.03,78.91
1057.13,78.59
1062.23,77.25
1067.33,75.86
1072.44,75.11
1077.54,75.57
1082.64,76.93
1087.74,77.85
1092.85,77.79
1097.95,77.73
1103.05,77.36
1108.15,77.47
1113.26,77.83
1118.36,78.04
1123.46,78.09
1128.56,77.59
1133.67,75.86
1138.77,73.25
1143.87,71.05
1148.97,70.04
1154.08,69.95
1159.18,70.27
1164.28,70.54
1169.38,70.82
1174.49,71.10
1179.59,70.17
1184.69,68.12
1189.79,66.44
1194.90,65.61
1200.00,64.54
1201.00,62.98
1210.06,62.01
1219.12,62.06
1228.18,62.63
1237.24,63.13
1246.30,63.26
1255.36,63.38
1264.42,63.73
1273.48,64.26
1282.55,64.34
1291.61,63.47
1300.67,62.12
1309.73,61.46
1318.79,62.12
1327.85,63.06
1336.91,62.66
1345.97,60.90
1355.03,59.49
1364.09,59.62
1373.15,60.19
1382.21,60.76
1391.27,61.85
1400.33,61.88
1409.39,60.21
1418.45,57.73
1427.52,56.47
1436.58,56.89
1445.64,57.44
1454.70,57.01
1463.76,55.90
1472.82,54.90
1481.88,54.84
1490.94,55.33
1500.00,55.82
1501.00,56.51
1510.24,55.96
1519.48,55.23
1528.72,55.76
1537.96,57.10
1547.20,57.38
1556.44,55.99
1565.69,54.14
1574.93,52.90
1584.17,52.22
1593.41,51.78
1602.65,51.97
1611.89,52.16
1621.13,53.88
1630.37,55.87
1639.61,56.53
1648.85,55.80
1658.09,54.66
1667.33,53.63
1676.57,52.70
1685.81,51.95
1695.06,51.45
1704.30,50.96
1713.54,50.37
1722.78,50.06
1732.02,50.14
1741.26,50.22
1750.50,50.47
1759.74,50.53
1768.98,50.18
1778.22,49.02
1787.46,47.61
1796.70,46.89
1805.94,46.67
1815.19,46.46
1824.43,46.43
1833.67,46.31
1842.91,45.65
1852.15,45.53
1861.39,45.41
1870.63,46.33
1879.87,46.98
1889.11,45.93
1898.35,44.40
1907.59,44.14
1916.83,44.64
1926.07,44.32
1935.31,43.31
1944.56,43.25
1953.80,44.66
1963.04,46.52
1972.28,47.71
1981.52,47.62
1990.76,47.52
2000.00,46.42
2001.00,45.84
2018.22,45.94
2035.45,45.52
2052.67,44.48
2069.90,43.73
2087.12,43.73
2104.34,44.28
2121.57,44.99
2138.79,45.65
2156.02,46.37
2173.24,46.80
2190.47,47.23
2207.69,47.73
2224.91,47.28
2242.14,46.04
2259.36,44.48
2276.59,43.37
2293.81,43.75
2311.03,45.30
2328.26,46.46
2345.48,46.60
2362.71,46.07
2379.93,44.92
2397.16,43.28
2414.38,42.59
2431.60,41.91
2448.83,41.40
2466.05,41.60
2483.28,42.17
2500.50,43.22
2517.72,44.60
2534.95,44.93
2552.17,43.62
2569.40,42.35
2586.62,42.39
2603.84,42.61
2621.07,41.58
2638.29,40.70
