Size (bp),Intensity
0.58,2345.85
1.00,2181.85
2.00,1610.31
2.42,960.96
2.84,488.23
3.26,240.47
3.68,140.83
4.10,107.56
4.52,98.00
4.94,97.03
5.36,96.07
5.79,95.24
6.21,92.72
6.63,87.76
7.05,80.26
7.47,70.95
7.89,61.20
8.31,51.56
8.73,41.84
9.15,32.72
9.57,25.62
9.99,21.33
10.41,19.38
10.83,18.74
11.25,18.49
11.67,17.98
12.09,16.95
12.52,16.20
12.94,15.46
13.36,13.54
13.78,11.53
14.20,10.29
14.62,10.12
15.04,10.23
15.46,10.00
15.88,9.57
16.30,9.14
16.72,8.76
17.14,8.52
17.56,8.70
17.98,9.38
18.40,10.09
18.82,9.71
19.24,8.08
19.67,6.65
20.09,6.70
20.51,6.75
20.93,8.03
21.35,9.36
21.77,10.04
22.19,10.24
22.61,10.24
23.03,9.65
23.45,8.42
23.87,7.37
24.29,6.98
24.71,6.84
25.13,6.37
25.55,5.36
25.97,4.33
26.39,4.22
26.82,4.97
27.24,5.55
27.66,5.69
28.08,5.83
28.50,6.60
28.92,7.46
29.34,7.09
29.76,5.73
30.18,5.14
30.60,5.87
31.02,6.94
31.44,7.69
31.86,8.19
32.28,8.57
32.70,9.15
33.12,10.02
33.55,10.48
33.97,9.99
34.39,9.06
34.81,8.28
35.23,8.08
35.65,7.89
36.07,8.15
36.49,9.12
36.91,10.22
37.33,10.86
37.75,11.14
38.17,11.58
38.59,12.66
39.01,14.45
39.43,16.15
39.85,16.65
40.27,15.87
40.70,15.00
41.12,14.84
41.54,14.94
41.96,14.83
42.38,14.82
42.80,14.76
43.22,14.71
43.64,13.86
44.06,12.79
44.48,12.55
44.90,13.13
45.32,13.56
45.74,13.11
46.16,12.06
46.58,11.05
47.00,10.00
47.42,8.67
47.85,7.28
48.27,6.33
48.69,6.11
49.11,6.12
49.53,5.40
49.95,3.92
50.37,3.37
50.79,2.82
51.21,3.14
51.63,4.33
52.05,5.03
52.47,5.06
52.89,5.42
53.31,6.24
53.73,6.14
54.15,4.54
54.58,3.02
55.00,3.20
55.42,4.32
55.84,4.78
56.26,4.18
56.68,3.15
57.10,2.36
57.52,2.11
57.94,2.13
58.36,2.14
58.78,2.22
59.20,2.60
59.62,3.18
60.04,3.40
60.46,3.16
60.88,2.85
61.30,2.73
61.73,2.70
62.15,2.58
62.57,2.56
62.99,2.75
63.41,2.92
63.83,3.39
64.25,4.41
64.67,5.38
65.09,5.88
65.51,5.87
65.93,5.85
66.35,5.10
66.77,4.14
67.19,3.96
67.61,4.53
68.03,4.70
68.45,3.87
68.88,2.60
69.30,1.75
69.72,1.77
70.14,2.41
70.56,3.08
70.98,3.43
71.40,3.31
71.82,2.70
72.24,2.31
72.66,2.87
73.08,3.29
73.50,3.70
73.92,3.95
74.34,4.17
74.76,4.60
75.18,4.54
75.61,4.13
76.03,3.88
76.45,3.60
76.87,3.31
77.29,3.35
77.71,3.61
78.13,3.61
78.55,3.36
78.97,3.28
79.39,3.53
79.81,4.00
80.23,4.72
80.65,5.00
81.07,5.27
81.49,4.88
81.91,4.05
82.33,3.99
82.76,4.59
83.18,5.01
83.60,4.90
84.02,4.12
84.44,3.02
84.86,2.53
85.28,3.10
85.70,4.11
86.12,4.68
86.54,4.16
86.96,2.90
87.38,2.23
87.80,2.65
88.22,2.88
88.64,3.11
89.06,3.17
89.48,3.69
89.91,4.59
90.33,4.50
90.75,2.89
91.17,1.07
91.59,0.38
92.01,0.73
92.43,1.26
92.85,1.73
93.27,2.39
93.69,3.18
94.11,3.83
94.53,4.22
94.95,4.27
95.37,3.74
95.79,3.31
96.21,2.89
96.64,2.63
97.06,3.35
97.48,4.33
97.90,4.57
98.32,3.90
98.74,3.39
99.16,3.81
99.58,3.92
100.00,2.59
101.00,1.30
101.52,1.28
102.04,1.44
102.56,0.77
103.08,-0.24
103.61,-0.59
104.13,0.23
104.65,0.81
105.17,1.38
105.69,1.93
106.21,2.09
106.73,2.12
107.25,1.95
107.77,2.08
108.29,2.97
108.82,4.22
109.34,5.05
109.86,5.04
110.38,4.13
110.90,2.54
111.42,1.04
111.94,0.49
112.46,0.82
112.98,1.39
113.51,1.51
114.03,1.62
114.55,0.98
115.07,-0.58
115.59,-2.08
116.11,-2.34
116.63,-1.40
117.15,-0.20
117.67,0.82
118.19,1.52
118.72,1.56
119.24,1.00
119.76,0.47
120.28,0.47
120.80,1.09
121.32,1.72
121.84,1.25
122.36,-0.25
122.88,-0.60
123.41,-0.96
123.93,0.21
124.45,1.60
124.97,1.12
125.49,-0.30
126.01,-0.22
126.53,1.25
127.05,1.90
127.57,1.05
128.09,-0.01
128.62,-0.17
129.14,0.35
129.66,0.51
130.18,-0.07
130.70,-0.43
131.22,0.15
131.74,1.15
132.26,1.62
132.78,2.09
133.31,2.78
133.83,2.70
134.35,1.94
134.87,1.19
135.39,0.32
135.91,-1.07
136.43,-2.17
136.95,-2.01
137.47,-1.04
137.99,-0.30
138.52,0.07
139.04,0.57
139.56,0.90
140.08,0.40
140.60,-0.70
141.12,-1.89
141.64,-2.45
142.16,-3.01
142.68,-3.79
143.21,-3.49
143.73,-1.70
144.25,0.70
144.77,2.15
145.29,2.35
145.81,2.23
146.33,2.36
146.85,2.25
147.37,1.20
147.89,-0.48
148.42,-1.62
148.94,-1.53
149.46,-0.65
149.98,0.26
150.50,0.90
151.02,1.12
151.54,1.34
152.06,1.76
152.58,2.20
153.11,2.28
153.63,1.72
154.15,1.06
154.67,0.91
155.19,0.75
155.71,0.30
156.23,0.57
156.75,1.80
157.27,2.63
157.79,2.54
158.32,2.43
158.84,2.54
159.36,2.29
159.88,1.76
160.40,1.69
160.92,1.62
161.44,2.02
161.96,2.38
162.48,2.38
163.01,2.41
163.53,2.80
164.05,3.24
164.57,3.42
165.09,3.54
165.61,4.14
166.13,5.54
166.65,7.22
167.17,7.94
167.69,7.55
168.22,7.33
168.74,7.99
169.26,8.54
169.78,8.27
170.30,8.01
170.82,7.21
171.34,7.62
171.86,9.51
172.38,12.18
172.91,14.83
173.43,17.01
173.95,18.89
174.47,20.36
174.99,20.60
175.51,19.08
176.03,16.52
176.55,14.44
177.07,13.98
177.59,14.60
178.12,14.79
178.64,13.93
179.16,13.25
179.68,12.58
180.20,11.42
180.72,10.83
181.24,10.44
181.76,9.55
182.28,8.13
182.81,6.63
183.33,5.35
183.85,4.52
184.37,4.04
184.89,3.39
185.41,2.92
185.93,3.84
186.45,5.84
186.97,6.89
187.49,6.25
188.02,5.42
188.54,5.64
189.06,5.86
189.58,7.72
190.10,10.38
190.62,12.76
191.14,13.88
191.66,14.04
192.18,14.50
192.71,15.83
193.23,17.69
193.75,19.69
194.27,21.28
194.79,21.89
195.31,21.79
195.83,21.83
196.35,22.37
196.87,22.71
197.39,22.13
197.92,21.60
198.44,21.06
198.96,20.37
199.48,20.01
200.00,19.62
201.00,19.64
201.59,20.44
202.17,21.44
202.76,21.85
203.34,21.60
203.93,21.60
204.51,22.68
205.10,24.20
205.69,25.15
206.27,25.68
206.86,26.00
207.44,25.83
208.03,25.44
208.62,25.35
209.20,25.27
209.79,24.97
210.37,24.07
210.96,22.83
211.54,21.74
212.13,20.71
212.72,19.63
213.30,18.85
213.89,18.59
214.47,18.73
215.06,19.28
215.64,19.83
216.23,19.36
216.82,17.72
217.40,16.10
217.99,15.46
218.57,15.57
219.16,15.63
219.75,15.70
220.33,15.49
220.92,14.92
221.50,13.87
222.09,12.56
222.67,11.72
223.26,11.95
223.85,12.92
224.43,13.55
225.02,13.41
225.60,13.19
226.19,13.16
226.78,12.66
227.36,11.95
227.95,12.35
228.53,13.89
229.12,14.97
229.70,14.92
230.29,14.87
230.88,14.31
231.46,14.17
232.05,14.86
232.63,15.89
233.22,16.46
233.80,16.71
234.39,17.21
234.98,17.68
235.56,17.68
236.15,17.73
236.73,18.81
237.32,21.08
237.91,23.64
238.49,25.61
239.08,26.44
239.66,25.80
240.25,25.18
240.83,24.57
241.42,24.62
242.01,26.46
242.59,28.77
243.18,30.45
243.76,31.40
244.35,31.83
244.93,31.98
245.52,32.41
246.11,33.69
246.69,36.11
247.28,39.60
247.86,43.77
248.45,47.55
249.04,49.71
249.62,50.37
250.21,50.46
250.79,50.19
251.38,49.92
251.96,48.23
252.55,46.55
253.14,47.25
253.72,51.64
254.31,59.44
254.89,69.72
255.48,80.97
256.07,91.41
256.65,99.93
257.24,106.35
257.82,110.90
258.41,113.23
258.99,112.93
259.58,111.31
260.17,110.81
260.75,112.97
261.34,115.61
261.92,118.25
262.51,126.89
263.09,139.16
263.68,155.73
264.27,178.05
264.85,207.73
265.44,244.76
266.02,287.64
266.61,334.73
267.20,383.64
267.78,431.16
268.37,476.42
268.95,521.53
269.54,567.69
270.12,613.33
270.71,657.18
271.30,701.82
271.88,728.30
272.47,754.77
273.05,827.93
273.64,934.75
274.22,1083.78
274.81,1272.42
275.40,1486.47
275.98,1706.16
276.57,1915.78
277.15,2111.27
277.74,2299.22
278.33,2491.83
278.91,2706.85
279.50,2971.51
280.08,3327.56
280.67,3834.31
281.25,4555.26
281.84,5533.97
282.43,6176.42
283.01,6818.87
283.60,8565.63
284.18,11072.92
284.77,14545.18
285.36,18663.91
285.94,22396.32
286.53,24386.09
287.11,23761.46
287.70,20715.73
288.28,16332.28
288.87,11863.51
289.46,8137.50
290.04,5427.95
290.63,3631.66
291.21,2502.22
291.80,1806.43
292.38,1379.55
292.97,1249.22
293.56,1118.90
294.14,960.74
294.73,863.51
295.31,800.42
295.90,755.62
296.49,719.81
297.07,686.75
297.66,652.05
298.24,613.35
298.83,570.47
299.41,524.71
300.00,478.13
301.00,433.33
301.70,392.77
302.39,358.38
303.09,331.40
303.79,311.70
304.49,304.91
305.18,298.12
305.88,289.86
306.58,286.37
307.27,285.58
307.97,283.22
308.67,275.25
309.37,260.40
310.06,240.48
310.76,219.05
311.46,199.01
312.15,181.07
312.85,164.90
313.55,150.36
314.25,137.64
314.94,127.08
315.64,118.55
316.34,111.50
317.04,108.64
317.73,105.79
318.43,101.30
319.13,97.40
319.82,93.71
320.52,90.62
321.22,88.12
321.92,85.61
322.61,82.97
323.31,80.64
324.01,78.72
324.70,76.94
325.40,75.24
326.10,73.88
326.80,72.76
327.49,71.02
328.19,68.43
328.89,65.92
329.58,64.96
330.28,63.99
330.98,62.17
331.68,60.17
332.37,58.36
333.07,56.92
333.77,55.58
334.46,54.03
335.16,52.24
335.86,50.22
336.56,48.24
337.25,47.05
337.95,46.95
338.65,46.71
339.35,45.36
340.04,43.72
340.74,42.70
341.44,41.81
342.13,41.27
342.83,40.72
343.53,39.83
344.23,39.04
344.92,38.32
345.62,38.49
346.32,39.43
347.01,39.77
347.71,39.12
348.41,37.76
349.11,35.39
349.80,32.56
350.50,30.98
351.20,31.06
351.89,31.74
352.59,32.18
353.29,32.08
353.99,31.52
354.68,31.26
355.38,30.99
356.08,30.90
356.77,31.06
357.47,31.01
358.17,30.59
358.87,30.01
359.56,29.64
360.26,29.77
360.96,30.35
361.65,30.60
362.35,29.76
363.05,28.37
363.75,27.49
364.44,26.90
365.14,25.64
365.84,23.92
366.54,22.81
367.23,22.72
367.93,22.64
368.63,22.92
369.32,22.97
370.02,22.42
370.72,21.74
371.42,21.49
372.11,21.60
372.81,21.73
373.51,21.71
374.20,21.81
374.90,22.28
375.60,22.58
376.30,21.94
376.99,20.56
377.69,19.39
378.39,18.86
379.08,18.36
379.78,17.93
380.48,17.51
381.18,17.05
381.87,17.49
382.57,17.98
383.27,17.57
383.96,16.40
384.66,15.28
385.36,14.90
386.06,15.61
386.75,17.28
387.45,18.92
388.15,18.88
388.85,16.74
389.54,14.24
390.24,13.10
390.94,13.09
391.63,13.10
392.33,13.00
393.03,12.90
393.73,12.81
394.42,12.89
395.12,12.97
395.82,13.00
396.51,13.28
397.21,13.88
397.91,13.91
398.61,12.77
399.30,11.35
400.00,10.68
401.00,10.67
401.72,10.79
402.45,10.83
403.17,11.00
403.89,11.72
404.61,12.11
405.34,12.50
406.06,12.05
406.78,10.33
407.50,9.27
408.23,10.04
408.95,11.45
409.67,12.18
410.39,12.53
411.12,13.14
411.84,13.65
412.56,13.31
413.28,12.36
414.01,11.83
414.73,11.99
415.45,12.00
416.18,11.21
416.90,9.83
417.62,9.26
418.34,8.68
419.07,8.52
419.79,9.23
420.51,9.76
421.23,9.68
421.96,9.34
422.68,8.95
423.40,8.63
424.12,8.36
424.85,7.97
425.57,7.60
426.29,7.54
427.01,7.60
427.74,7.68
428.46,8.07
429.18,8.40
429.91,7.98
430.63,7.65
431.35,7.31
432.07,7.39
432.80,8.49
433.52,10.27
434.24,11.86
434.96,12.27
435.69,11.58
436.41,10.95
437.13,11.01
437.85,11.20
438.58,10.76
439.30,9.93
440.02,9.47
440.74,9.69
441.47,10.45
442.19,11.25
442.91,11.46
443.64,11.23
444.36,11.01
445.08,10.32
445.80,9.74
446.53,9.31
447.25,8.78
447.97,8.18
448.69,7.92
449.42,7.92
450.14,7.59
450.86,6.80
451.58,6.19
452.31,6.22
453.03,6.38
453.75,5.96
454.47,5.20
455.20,5.09
455.92,6.15
456.64,6.84
457.36,7.53
458.09,7.76
458.81,6.80
459.53,6.05
460.26,6.08
460.98,6.19
461.70,6.21
462.42,6.26
463.15,6.01
463.87,5.85
464.59,6.38
465.31,6.57
466.04,5.36
466.76,3.83
467.48,3.51
468.20,4.33
468.93,5.42
469.65,5.88
470.37,6.33
471.09,6.69
471.82,6.33
472.54,5.88
473.26,6.26
473.99,7.37
474.71,8.10
475.43,8.00
476.15,7.83
476.88,8.15
477.60,8.48
478.32,8.05
479.04,6.71
479.77,5.13
480.49,4.05
481.21,3.48
481.93,3.13
482.66,3.06
483.38,2.99
484.10,2.92
484.82,2.82
485.55,2.97
486.27,3.44
486.99,4.05
487.72,4.55
488.44,4.66
489.16,4.50
489.88,4.54
490.61,4.57
491.33,4.15
492.05,3.56
492.77,3.28
493.50,3.48
494.22,4.28
494.94,5.47
495.66,5.89
496.39,6.31
497.11,6.45
497.83,6.66
498.55,7.55
499.28,8.44
500.00,8.62
501.00,8.41
502.01,8.20
503.02,7.70
504.03,7.06
505.04,6.79
506.05,6.53
507.06,6.00
508.07,6.30
509.08,7.55
510.09,7.80
511.10,6.35
512.11,5.69
513.12,5.02
514.13,4.98
515.14,5.12
516.15,4.46
517.16,3.90
518.17,4.61
519.18,6.17
520.19,7.41
521.20,7.72
522.21,7.19
523.22,6.35
524.23,5.74
525.24,5.43
526.26,5.12
527.27,4.51
528.28,3.79
529.29,3.48
530.30,3.54
531.31,3.59
532.32,3.81
533.33,3.92
534.34,3.72
535.35,3.44
536.36,3.71
537.37,4.68
538.38,5.82
539.39,6.38
540.40,6.15
541.41,5.67
542.42,5.37
543.43,5.26
544.44,5.42
545.45,5.72
546.46,5.49
547.47,4.32
548.48,3.56
549.49,2.80
550.50,1.97
551.51,2.12
552.52,2.48
553.53,2.34
554.54,1.95
555.55,2.04
556.56,2.64
557.57,3.00
558.58,2.87
559.59,2.63
560.60,2.22
561.61,1.61
562.62,1.49
563.63,2.10
564.64,2.57
565.65,2.46
566.66,2.39
567.67,2.32
568.68,2.40
569.69,2.39
570.70,2.15
571.71,1.97
572.72,2.33
573.73,3.47
574.74,4.61
575.76,4.72
576.77,4.10
577.78,3.63
578.79,3.26
579.80,2.74
580.81,2.70
581.82,3.62
582.83,5.01
583.84,6.06
584.85,6.39
585.86,6.72
586.87,7.44
587.88,7.85
588.89,7.05
589.90,5.41
590.91,4.24
591.92,4.01
592.93,4.14
593.94,4.04
594.95,3.92
595.96,4.50
596.97,5.75
597.98,6.39
598.99,5.60
600.00,4.32
601.00,4.02
602.18,4.79
603.36,5.04
604.54,5.29
605.71,4.57
606.89,3.32
608.07,3.04
609.25,4.31
610.43,6.00
611.61,6.50
612.79,5.56
613.96,4.25
615.14,3.68
616.32,4.05
617.50,4.68
618.68,5.01
619.86,5.17
621.04,5.28
622.21,5.21
623.39,5.01
624.57,4.94
625.75,4.86
626.93,4.67
628.11,4.35
629.29,4.16
630.46,4.24
631.64,4.35
632.82,4.29
634.00,3.65
635.18,2.29
636.36,1.18
637.54,1.20
638.71,1.87
639.89,2.58
641.07,3.47
642.25,4.56
643.43,5.46
644.61,6.07
645.79,6.26
646.96,6.46
648.14,6.13
649.32,4.62
650.50,2.79
651.68,2.35
652.86,3.59
654.04,5.12
655.21,6.14
656.39,6.81
657.57,7.05
658.75,6.82
659.93,6.54
661.11,6.22
662.29,5.52
663.46,4.52
664.64,3.88
665.82,4.20
667.00,4.68
668.18,5.17
669.36,5.87
670.54,6.12
671.71,6.55
672.89,7.38
674.07,8.21
675.25,8.55
676.43,8.08
677.61,6.96
678.79,6.20
679.96,6.81
681.14,8.43
682.32,9.76
683.50,9.95
684.68,8.92
685.86,7.44
687.04,6.95
688.21,7.34
689.39,7.72
690.57,8.38
691.75,8.55
692.93,8.93
694.11,9.35
695.29,9.88
696.46,11.03
697.64,11.73
698.82,10.75
700.00,8.89
701.00,7.84
702.98,8.42
704.96,9.86
706.94,10.29
708.92,9.21
710.90,8.33
712.88,8.82
714.86,9.41
716.84,10.01
718.82,11.06
720.80,11.87
722.78,12.48
724.76,12.61
726.74,12.22
728.72,11.80
730.70,11.64
732.68,11.60
734.66,11.40
736.64,11.01
738.62,10.90
740.60,11.35
742.58,11.70
744.56,11.15
746.54,9.83
748.52,8.56
750.50,8.34
752.48,8.11
754.46,8.33
756.44,8.71
758.42,9.22
760.40,9.58
762.38,8.88
764.36,7.21
766.34,5.82
768.32,5.31
770.30,5.51
772.28,6.33
774.26,7.11
776.24,7.02
778.22,6.20
780.20,5.41
782.18,5.07
784.16,5.18
786.14,5.31
788.12,5.44
790.10,5.65
792.08,5.71
794.06,5.67
796.04,5.93
798.02,6.78
800.00,7.34
801.00,6.77
803.36,6.14
805.71,6.91
808.07,8.00
810.43,7.52
812.79,6.04
815.14,5.66
817.50,6.56
819.86,6.79
822.21,5.68
824.57,5.24
826.93,4.79
829.29,5.23
831.64,6.09
834.00,6.11
836.36,5.27
838.71,4.41
841.07,4.11
843.43,4.12
845.79,3.87
848.14,3.54
850.50,3.87
852.86,4.95
855.21,5.81
857.57,5.65
859.93,4.94
862.29,4.35
864.64,3.55
867.00,2.96
869.36,2.38
871.71,1.94
874.07,2.80
876.43,3.80
878.79,4.09
881.14,4.10
883.50,4.14
885.86,3.84
888.21,3.17
890.57,2.50
892.93,2.16
895.29,2.16
897.64,2.21
900.00,2.13
901.00,1.96
904.67,1.54
908.33,0.88
912.00,0.58
915.67,0.28
919.33,-0.41
923.00,-1.21
926.67,-1.31
930.33,-0.22
934.00,1.13
937.67,1.49
941.33,1.11
945.00,1.01
948.67,1.43
952.33,2.23
956.00,3.27
959.67,4.07
963.33,3.90
967.00,2.79
970.67,1.62
974.33,0.69
978.00,0.06
981.67,-0.56
985.33,-1.84
989.00,-1.90
992.67,-0.40
996.33,1.43
1000.00,2.15
1001.00,1.52
1006.10,0.39
1011.21,-0.33
1016.31,-0.05
1021.41,1.09
1026.51,2.11
1031.62,2.33
1036.72,2.21
1041.82,2.14
1046.92,1.83
1052.03,1.23
1057.13,0.99
1062.23,0.76
1067.33,0.70
1072.44,0.96
1077.54,1.26
1082.64,1.53
1087.74,2.09
1092.85,2.81
1097.95,3.02
1103.05,2.80
1108.15,2.91
1113.26,3.19
1118.36,2.94
1123.46,2.48
1128.56,2.38
1133.67,2.15
1138.77,1.31
1143.87,0.64
1148.97,0.68
1154.08,0.72
1159.18,1.19
1164.28,2.11
1169.38,3.58
1174.49,4.66
1179.59,4.68
1184.69,4.04
1189.79,3.34
1194.90,2.90
1200.00,2.62
1201.00,2.15
1210.06,1.68
1219.12,1.72
1228.18,2.25
1237.24,2.85
1246.30,3.08
1255.36,2.60
1264.42,1.97
1273.48,1.35
1282.55,0.08
1291.61,-0.15
1300.67,0.98
1309.73,2.59
1318.79,3.17
1327.85,2.34
1336.91,1.15
1345.97,0.19
1355.03,-0.67
1364.09,-1.06
1373.15,-0.57
1382.21,0.54
1391.27,1.69
1400.33,2.29
1409.39,1.99
1418.45,1.65
1427.52,1.31
1436.58,1.18
1445.64,1.79
1454.70,2.40
1463.76,2.55
1472.82,2.31
1481.88,1.80
1490.94,1.32
1500.00,1.29
1501.00,1.49
1510.24,1.57
1519.48,1.59
1528.72,1.51
1537.96,1.18
1547.20,0.68
1556.44,0.28
1565.69,0.20
1574.93,0.30
1584.17,0.39
1593.41,0.60
1602.65,0.93
1611.89,1.72
1621.13,2.54
1630.37,2.21
1639.61,0.63
1648.85,-0.93
1658.09,-1.57
1667.33,-1.35
1676.57,-0.53
1685.81,0.53
1695.06,1.27
1704.30,1.28
1713.54,0.82
1722.78,0.35
1732.02,-0.06
1741.26,-0.27
1750.50,-0.49
1759.74,-0.76
1768.98,-0.76
1778.22,-0.75
1787.46,-0.78
1796.70,-0.36
1805.94,0.53
1815.19,0.97
1824.43,0.60
1833.67,0.36
1842.91,1.07
1852.15,2.40
1861.39,3.51
1870.63,3.63
1879.87,2.48
1889.11,0.67
1898.35,-0.39
1907.59,-0.01
1916.83,0.37
1926.07,2.64
1935.31,4.99
1944.56,6.25
1953.80,6.41
1963.04,6.24
1972.28,6.29
1981.52,6.21
1990.76,5.46
2000.00,4.49
2001.00,4.26
2018.22,4.62
2035.45,4.98
2052.67,5.58
2069.90,6.20
2087.12,5.96
2104.34,5.14
2121.57,4.92
2138.79,4.69
2156.02,4.27
2173.24,3.21
2190.47,1.85
2207.69,1.14
2224.91,1.61
2242.14,2.68
2259.36,3.36
2276.59,3.70
2293.81,4.24
2311.03,4.50
2328.26,3.97
2345.48,3.16
2362.71,3.08
2379.93,4.04
2397.16,5.04
2414.38,5.06
2431.60,4.68
2448.83,4.29
2466.05,3.36
2483.28,2.42
2500.50,1.73
2517.72,1.74
2534.95,2.28
2552.17,2.64
2569.40,2.65
2586.62,2.62
2603.84,2.18
2621.07,1.24
2638.29,1.03
2655.52,2.18
2672.74,4.06
2689.97,5.84
2707.19,6.66
2724.41,6.22
2741.64,5.92
2758.86,5.63
2776.09,5.71
2793.31,5.93
2810.53,5.94
2827.76,6.30
2844.98,7.07
2862.21,7.26
2879.43,6.09
2896.66,4.20
2913.88,3.06
2931.10,3.27
2948.33,4.02
2965.55,4.39
2982.78,4.71
3000.00,5.77
3001.00,7.13
3025.99,7.54
3050.98,7.12
3075.98,6.70
3100.97,5.34
3125.96,4.20
3150.95,3.56
3175.94,3.59
3200.93,4.58
3225.93,6.13
3250.92,7.10
3275.91,7.07
3300.90,6.33
3325.89,4.99
3350.88,3.71
3375.87,3.60
3400.87,4.51
3425.86,5.20
3450.85,5.01
3475.84,4.48
3500.83,4.46
3525.82,4.44
3550.82,4.91
3575.81,5.52
3600.80,6.13
3625.79,6.41
3650.78,6.27
3675.77,6.23
3700.77,6.21
3725.76,5.73
3750.75,5.03
3775.74,4.53
3800.73,4.14
3825.73,3.78
3850.72,3.61
3875.71,3.66
3900.70,3.64
3925.69,3.21
3950.68,2.88
3975.68,2.55
4000.67,2.54
4025.66,3.48
4050.65,4.57
4075.64,5.18
4100.63,5.58
4125.62,6.11
4150.62,6.48
4175.61,6.22
4200.60,5.60
4225.59,5.24
4250.58,5.08
4275.58,4.76
4300.57,4.16
4325.56,3.34
4350.55,2.42
4375.54,1.67
4400.53,1.59
4425.52,1.51
4450.52,2.23
4475.51,3.11
4500.50,3.16
4525.49,2.63
4550.48,2.21
4575.48,2.21
4600.47,2.91
4625.46,3.79
4650.45,3.71
4675.44,2.64
4700.43,1.34
4725.42,0.59
4750.42,1.15
4775.41,2.89
4800.40,4.39
4825.39,4.88
4850.38,4.97
4875.37,5.07
4900.37,5.43
4925.36,5.35
4950.35,4.40
4975.34,3.09
5000.33,2.40
5025.33,2.87
5050.32,4.14
5075.31,5.45
5100.30,6.34
5125.29,6.89
5150.28,7.44
5175.27,7.83
5200.27,7.51
5225.26,6.77
5250.25,6.79
5275.24,7.84
5300.23,8.50
5325.23,9.17
5350.22,10.31
5375.21,11.18
5400.20,11.89
5425.19,12.73
5450.18,13.66
5475.17,14.32
5500.17,14.74
5525.16,15.21
5550.15,16.18
5575.14,18.07
5600.13,21.07
5625.12,26.45
5650.12,37.67
5675.11,60.06
