Size (bp),Intensity
0.58,1583.56
1.00,1388.69
2.00,969.07
2.42,548.47
2.84,267.21
3.26,131.09
3.68,81.26
4.10,66.87
4.52,65.32
4.94,63.77
5.36,63.56
5.79,63.61
6.21,62.88
6.63,60.12
7.05,54.13
7.47,45.81
7.89,38.05
8.31,31.95
8.73,26.10
9.15,20.40
9.57,16.08
9.99,12.85
10.41,10.50
10.83,10.37
11.25,10.24
11.67,11.89
12.09,13.28
12.52,13.26
12.94,12.26
13.36,10.52
13.78,7.81
14.20,4.94
14.62,3.67
15.04,5.03
15.46,9.09
15.88,16.36
16.30,27.94
16.72,42.07
17.14,52.00
17.56,51.56
17.98,51.12
18.40,40.16
18.82,26.38
19.24,16.25
19.67,11.04
20.09,8.48
20.51,6.31
20.93,4.10
21.35,2.80
21.77,3.29
22.19,5.09
22.61,6.35
23.03,5.76
23.45,3.99
23.87,3.13
24.29,2.27
24.71,0.95
25.13,-0.03
25.55,-0.30
25.97,0.39
26.39,1.39
26.82,1.50
27.24,0.54
27.66,-0.42
28.08,-0.37
28.50,0.51
28.92,1.16
29.34,0.93
29.76,0.31
30.18,0.13
30.60,0.31
31.02,0.48
31.44,0.74
31.86,0.46
32.28,0.11
32.70,0.38
33.12,1.03
33.55,1.15
33.97,0.53
34.39,0.04
34.81,0.46
35.23,1.49
35.65,2.12
36.07,1.97
36.49,1.47
36.91,1.23
37.33,0.98
37.75,0.38
38.17,-0.26
38.59,-0.34
39.01,0.66
39.43,2.45
39.85,3.83
40.27,3.79
40.70,2.43
41.12,0.90
41.54,0.50
41.96,1.38
42.38,2.42
42.80,2.93
43.22,3.59
43.64,4.16
44.06,4.72
44.48,5.54
44.90,5.66
45.32,5.52
45.74,5.83
46.16,6.79
46.58,7.64
47.00,7.63
47.42,7.17
47.85,7.19
48.27,8.21
48.69,9.70
49.11,10.27
49.53,9.48
49.95,8.88
50.37,8.28
50.79,7.35
51.21,6.97
51.63,7.65
52.05,9.12
52.47,10.00
52.89,9.57
53.31,8.94
53.73,9.41
54.15,10.73
54.58,12.10
55.00,13.47
55.42,14.64
55.84,15.15
56.26,15.33
56.68,15.60
57.10,15.87
57.52,16.95
57.94,18.71
58.36,20.81
58.78,21.94
59.20,21.63
59.62,21.39
60.04,21.99
60.46,21.87
60.88,20.07
61.30,17.84
61.73,16.28
62.15,15.20
62.57,14.37
62.99,14.29
63.41,15.02
63.83,15.75
64.25,18.91
64.67,22.90
65.09,26.89
65.51,29.95
65.93,30.19
66.35,26.66
66.77,21.06
67.19,16.16
67.61,13.56
68.03,12.77
68.45,12.35
68.88,11.81
69.30,11.30
69.72,10.99
70.14,10.67
70.56,10.30
70.98,11.09
71.40,12.41
71.82,12.43
72.24,10.97
72.66,9.69
73.08,9.67
73.50,10.46
73.92,10.93
74.34,10.22
74.76,8.74
75.18,7.89
75.61,8.11
76.03,8.50
76.45,8.39
76.87,8.28
77.29,7.73
77.71,7.37
78.13,7.35
78.55,7.40
78.97,7.38
79.39,7.35
79.81,7.33
80.23,7.48
80.65,8.14
81.07,8.87
81.49,8.92
81.91,8.66
82.33,8.70
82.76,8.69
83.18,8.69
83.60,8.30
84.02,8.22
84.44,8.83
84.86,9.22
85.28,8.82
85.70,8.57
86.12,8.95
86.54,9.24
86.96,9.14
87.38,9.04
87.80,9.20
88.22,9.49
88.64,9.24
89.06,8.08
89.48,7.43
89.91,6.77
90.33,6.42
90.75,7.36
91.17,9.06
91.59,10.11
92.01,9.62
92.43,8.50
92.85,8.10
93.27,8.61
93.69,9.46
94.11,9.95
94.53,9.72
94.95,8.88
95.37,7.66
95.79,7.24
96.21,6.82
96.64,7.50
97.06,9.38
97.48,10.89
97.90,11.34
98.32,11.16
98.74,10.66
99.16,10.11
99.58,10.06
100.00,10.63
101.00,11.37
101.52,11.80
102.04,11.71
102.56,11.33
103.08,11.38
103.61,11.76
104.13,12.14
104.65,12.88
105.17,13.04
105.69,12.69
106.21,12.13
106.73,11.76
107.25,11.43
107.77,10.45
108.29,9.00
108.82,8.32
109.34,9.14
109.86,10.79
110.38,11.98
110.90,12.19
111.42,12.09
111.94,11.98
112.46,11.89
112.98,11.96
113.51,12.50
114.03,13.68
114.55,14.67
115.07,14.88
115.59,14.81
116.11,14.91
116.63,15.29
117.15,16.03
117.67,16.35
118.19,15.15
118.72,13.05
119.24,11.78
119.76,11.78
120.28,11.78
120.80,12.10
121.32,12.28
121.84,12.86
122.36,13.73
122.88,13.89
123.41,13.38
123.93,13.34
124.45,14.21
124.97,15.03
125.49,14.63
126.01,13.09
126.53,11.61
127.05,11.09
127.57,11.22
128.09,11.34
128.62,11.69
129.14,11.92
129.66,12.55
130.18,14.04
130.70,15.91
131.22,17.06
131.74,17.06
132.26,16.63
132.78,16.50
133.31,16.69
133.83,16.99
134.35,17.27
134.87,17.35
135.39,17.01
135.91,16.60
136.43,16.19
136.95,15.42
137.47,15.22
137.99,15.37
138.52,15.66
139.04,16.18
139.56,16.31
140.08,15.47
140.60,14.76
141.12,15.63
141.64,17.52
142.16,18.84
142.68,19.24
143.21,19.37
143.73,19.40
144.25,19.43
144.77,19.23
145.29,19.02
145.81,19.01
146.33,18.67
146.85,17.47
147.37,16.23
147.89,16.57
148.42,18.64
148.94,20.49
149.46,20.66
149.98,20.16
150.50,20.38
151.02,21.07
151.54,21.61
152.06,21.92
152.58,22.23
153.11,22.89
153.63,23.24
154.15,23.70
154.67,24.86
155.19,26.54
155.71,28.35
156.23,30.06
156.75,31.09
157.27,30.99
157.79,30.44
158.32,30.47
158.84,31.18
159.36,32.14
159.88,32.74
160.40,33.34
160.92,35.22
161.44,37.98
161.96,40.64
162.48,42.10
163.01,42.92
163.53,44.17
164.05,45.29
164.57,45.33
165.09,45.18
165.61,46.22
166.13,48.08
166.65,49.39
167.17,49.53
167.69,49.20
168.22,49.29
168.74,49.39
169.26,50.16
169.78,50.87
170.30,51.53
170.82,52.70
171.34,54.55
171.86,56.65
172.38,58.30
172.91,59.52
173.43,61.39
173.95,64.61
174.47,68.45
174.99,71.53
175.51,73.57
176.03,75.59
176.55,76.95
177.07,78.32
177.59,81.25
178.12,84.13
178.64,87.49
179.16,91.41
179.68,95.66
180.20,100.40
180.72,105.54
181.24,110.78
181.76,116.11
182.28,121.90
182.81,128.87
183.33,137.02
183.85,144.81
184.37,148.06
184.89,151.32
185.41,157.95
185.93,166.24
186.45,175.77
186.97,185.66
187.49,196.02
188.02,207.82
188.54,221.94
189.06,237.82
189.58,253.52
190.10,267.82
190.62,281.20
191.14,294.49
191.66,307.93
192.18,321.16
192.71,327.25
193.23,333.34
193.75,344.34
194.27,355.69
194.79,368.56
195.31,381.72
195.83,393.65
196.35,404.64
196.87,415.13
197.39,424.67
197.92,433.55
198.44,442.90
198.96,453.13
199.48,464.17
200.00,476.80
201.00,484.45
201.59,492.10
202.17,509.48
202.76,527.18
203.34,545.08
203.93,564.57
204.51,585.89
205.10,608.33
205.69,632.18
206.27,658.09
206.86,685.74
207.44,714.64
208.03,745.16
208.62,777.76
209.20,811.84
209.79,846.04
210.37,862.99
210.96,879.94
211.54,914.65
212.13,950.21
212.72,984.71
213.30,1017.20
213.89,1048.41
214.47,1078.55
215.06,1107.53
215.64,1135.50
216.23,1162.53
216.82,1189.49
217.40,1218.49
217.99,1250.97
218.57,1286.76
219.16,1306.18
219.75,1325.61
220.33,1367.97
220.92,1413.42
221.50,1459.55
222.09,1504.32
222.67,1548.48
223.26,1593.77
223.85,1639.87
224.43,1685.25
225.02,1729.60
225.60,1773.55
226.19,1816.70
226.78,1857.47
227.36,1895.26
227.95,1931.22
228.53,1948.55
229.12,1965.88
229.70,1998.12
230.29,2027.69
230.88,2056.32
231.46,2085.05
232.05,2113.22
232.63,2141.53
233.22,2172.60
233.80,2208.54
234.39,2249.92
234.98,2295.38
235.56,2341.97
236.15,2387.66
236.73,2433.07
237.32,2456.54
237.91,2480.00
238.49,2528.57
239.08,2576.80
239.66,2622.90
240.25,2665.81
240.83,2703.85
241.42,2736.54
242.01,2768.10
242.59,2804.84
243.18,2849.58
243.76,2902.22
244.35,2962.59
244.93,3028.11
245.52,3092.35
246.11,3149.58
246.69,3174.02
247.28,3198.46
247.86,3239.36
248.45,3271.21
249.04,3293.62
249.62,3309.24
250.21,3321.07
250.79,3329.80
251.38,3336.26
251.96,3343.39
252.55,3352.71
253.14,3362.57
253.72,3371.55
254.31,3379.37
254.89,3385.11
255.48,3386.48
256.07,3387.85
256.65,3387.48
257.24,3383.99
257.82,3378.23
258.41,3372.64
258.99,3370.02
259.58,3373.45
260.17,3385.77
260.75,3406.29
261.34,3430.21
261.92,3451.98
262.51,3467.74
263.09,3475.41
263.68,3474.23
264.27,3464.82
264.85,3456.99
265.44,3449.15
266.02,3429.35
266.61,3408.09
267.20,3389.80
267.78,3377.87
268.37,3372.42
268.95,3372.88
269.54,3379.07
270.12,3389.86
270.71,3403.10
271.30,3415.45
271.88,3423.60
272.47,3426.87
273.05,3426.00
273.64,3423.65
274.22,3421.29
274.81,3413.78
275.40,3405.10
275.98,3396.62
276.57,3390.35
277.15,3387.67
277.74,3387.69
278.33,3389.12
278.91,3391.41
279.50,3393.27
280.08,3392.56
280.67,3388.30
281.25,3381.68
281.84,3373.55
282.43,3362.34
283.01,3354.47
283.60,3346.60
284.18,3328.02
284.77,3310.09
285.36,3294.52
285.94,3281.43
286.53,3272.10
287.11,3268.37
287.70,3271.05
288.28,3279.65
288.87,3290.47
289.46,3297.02
290.04,3294.90
290.63,3282.46
291.21,3258.73
291.80,3242.71
292.38,3226.69
292.97,3194.77
293.56,3170.23
294.14,3154.47
294.73,3146.36
295.31,3144.99
295.90,3148.48
296.49,3153.91
297.07,3158.29
297.66,3158.01
298.24,3150.86
298.83,3139.23
299.41,3127.17
300.00,3116.04
301.00,3106.53
301.70,3104.28
302.39,3102.04
303.09,3105.25
303.79,3112.21
304.49,3115.64
305.18,3114.72
305.88,3115.13
306.58,3120.62
307.27,3130.43
307.97,3141.31
308.67,3148.93
309.37,3151.34
310.06,3150.88
310.76,3149.66
311.46,3146.89
312.15,3144.65
312.85,3142.41
313.55,3138.70
314.25,3137.53
314.94,3137.37
315.64,3134.48
316.34,3125.21
317.04,3107.08
317.73,3079.36
318.43,3042.82
319.13,2998.52
319.82,2948.17
320.52,2895.92
321.22,2847.83
321.92,2808.36
322.61,2777.22
323.31,2763.62
324.01,2750.03
324.70,2723.19
325.40,2697.71
326.10,2676.36
326.80,2659.12
327.49,2642.84
328.19,2624.02
328.89,2602.04
329.58,2579.35
330.28,2557.32
330.98,2534.55
331.68,2510.19
332.37,2486.20
333.07,2465.53
333.77,2450.38
334.46,2445.60
335.16,2440.81
335.86,2434.12
336.56,2427.30
337.25,2419.51
337.95,2411.61
338.65,2405.08
339.35,2400.65
340.04,2397.97
340.74,2397.60
341.44,2400.42
342.13,2405.07
342.83,2409.57
343.53,2414.22
344.23,2419.23
344.92,2420.38
345.62,2421.53
346.32,2417.73
347.01,2407.87
347.71,2394.15
348.41,2378.73
349.11,2362.80
349.80,2345.99
350.50,2328.39
351.20,2311.72
351.89,2298.18
352.59,2290.39
353.29,2290.98
353.99,2299.89
354.68,2313.95
355.38,2328.95
356.08,2334.71
356.77,2340.46
357.47,2344.39
358.17,2340.08
358.87,2331.24
359.56,2321.30
360.26,2310.26
360.96,2297.01
361.65,2280.61
362.35,2260.45
363.05,2238.61
363.75,2219.52
364.44,2205.83
365.14,2196.85
365.84,2190.15
366.54,2186.51
367.23,2182.86
367.93,2173.29
368.63,2162.30
369.32,2152.06
370.02,2143.73
370.72,2136.37
371.42,2127.61
372.11,2116.88
372.81,2106.34
373.51,2096.66
374.20,2085.12
374.90,2069.78
375.60,2052.72
376.30,2038.23
376.99,2028.78
377.69,2026.01
378.39,2023.24
379.08,2019.75
379.78,2019.26
380.48,2023.17
381.18,2029.26
381.87,2033.68
382.57,2035.27
383.27,2034.87
383.96,2033.03
384.66,2030.51
385.36,2028.51
386.06,2026.74
386.75,2023.48
387.45,2018.30
388.15,2014.90
388.85,2011.49
389.54,2001.53
390.24,1986.87
390.94,1968.98
391.63,1951.33
392.33,1937.26
393.03,1928.77
393.73,1925.45
394.42,1925.50
395.12,1928.33
395.82,1935.04
396.51,1945.89
397.21,1958.14
397.91,1967.60
398.61,1972.93
399.30,1974.61
400.00,1976.30
401.00,1978.94
401.72,1979.48
402.45,1977.41
403.17,1975.18
403.89,1975.49
404.61,1977.51
405.34,1977.95
406.06,1976.16
406.78,1974.03
407.50,1970.41
408.23,1961.54
408.95,1945.61
409.67,1921.80
410.39,1905.46
411.12,1889.11
411.84,1849.94
412.56,1810.26
413.28,1774.52
414.01,1744.29
414.73,1719.97
415.45,1700.19
416.18,1682.08
416.90,1663.54
417.62,1643.76
418.34,1621.99
419.07,1597.84
419.79,1572.50
420.51,1547.87
421.23,1525.50
421.96,1516.37
422.68,1507.24
423.40,1494.42
424.12,1486.94
424.85,1484.71
425.57,1487.09
426.29,1490.85
427.01,1492.42
427.74,1491.28
428.46,1488.46
429.18,1484.17
429.91,1478.90
430.63,1473.87
431.35,1469.68
432.07,1466.22
432.80,1465.04
433.52,1463.86
434.24,1463.56
434.96,1466.00
435.69,1471.38
436.41,1479.28
437.13,1488.07
437.85,1495.32
438.58,1499.07
439.30,1497.79
440.02,1490.53
440.74,1477.80
441.47,1461.34
442.19,1442.55
442.91,1421.79
443.64,1399.50
444.36,1388.58
445.08,1377.65
445.80,1359.08
446.53,1346.07
447.25,1340.26
447.97,1341.97
448.69,1348.43
449.42,1354.60
450.14,1356.46
450.86,1352.76
451.58,1344.54
452.31,1334.20
453.03,1323.75
453.75,1313.78
454.47,1305.02
455.20,1302.06
455.92,1299.10
456.64,1295.76
457.36,1291.38
458.09,1283.26
458.81,1272.71
459.53,1261.21
460.26,1248.88
460.98,1237.12
461.70,1227.34
462.42,1218.74
463.15,1210.26
463.87,1201.75
464.59,1192.81
465.31,1182.67
466.04,1171.44
466.76,1166.13
467.48,1160.81
468.20,1152.58
468.93,1146.28
469.65,1139.61
470.37,1131.40
471.09,1122.67
471.82,1115.13
472.54,1109.15
473.26,1103.52
473.99,1097.28
474.71,1091.17
475.43,1086.38
476.15,1082.12
476.88,1075.99
477.60,1071.46
478.32,1066.93
479.04,1055.86
479.77,1043.71
480.49,1031.47
481.21,1020.52
481.93,1011.58
482.66,1004.46
483.38,998.43
484.10,992.32
484.82,985.60
485.55,979.78
486.27,977.62
486.99,980.36
487.72,985.99
488.44,991.42
489.16,993.36
489.88,995.30
490.61,996.70
491.33,993.08
492.05,982.60
492.77,966.83
493.50,949.22
494.22,932.18
494.94,916.85
495.66,904.63
496.39,896.81
497.11,892.80
497.83,890.65
498.55,888.85
499.28,886.20
500.00,881.00
501.00,876.86
502.01,872.71
503.02,863.67
504.03,857.02
505.04,853.72
506.05,852.69
507.06,852.90
508.07,853.74
509.08,853.23
510.09,848.39
511.10,838.69
512.11,826.73
513.12,815.47
514.13,806.42
515.14,799.38
516.15,796.57
517.16,793.77
518.17,790.11
519.18,788.66
520.19,787.53
521.20,784.17
522.21,777.98
523.22,769.48
524.23,759.26
525.24,748.06
526.26,736.05
527.27,723.32
528.28,711.41
529.29,701.46
530.30,692.78
531.31,684.24
532.32,679.85
533.33,675.47
534.34,667.47
535.35,661.93
536.36,658.72
537.37,656.12
538.38,653.36
539.39,650.74
540.40,648.45
541.41,646.58
542.42,645.18
543.43,644.36
544.44,644.09
545.45,643.25
546.46,640.51
547.47,638.20
548.48,635.90
549.49,629.91
550.50,622.92
551.51,617.14
552.52,615.49
553.53,617.73
554.54,620.68
555.55,621.73
556.56,620.75
557.57,618.79
558.58,615.83
559.59,610.94
560.60,604.08
561.61,595.96
562.62,587.06
563.63,582.30
564.64,577.53
565.65,567.43
566.66,556.86
567.67,546.54
568.68,537.68
569.69,530.74
570.70,524.56
571.71,517.64
572.72,509.87
573.73,502.37
574.74,496.46
575.76,492.67
576.77,490.05
577.78,487.40
578.79,486.27
579.80,485.14
580.81,483.66
581.82,481.83
582.83,479.21
583.84,476.78
584.85,474.86
585.86,472.76
586.87,469.56
587.88,465.04
588.89,460.00
589.90,454.90
590.91,449.28
591.92,443.21
592.93,437.56
593.94,433.20
594.95,431.75
595.96,430.29
596.97,427.89
597.98,425.02
598.99,421.54
600.00,417.89
601.00,414.88
602.18,413.47
603.36,414.33
604.54,417.65
605.71,422.36
606.89,425.87
608.07,425.66
609.25,421.24
610.43,414.01
611.61,409.67
612.79,405.32
613.96,395.56
615.14,385.61
616.32,377.21
617.50,370.88
618.68,365.60
619.86,360.75
621.04,356.36
622.21,352.84
623.39,350.71
624.57,349.06
625.75,345.69
626.93,340.27
628.11,334.64
629.29,329.60
630.46,327.07
631.64,324.54
632.82,319.42
634.00,315.07
635.18,312.44
636.36,311.66
637.54,311.37
638.71,309.96
639.89,307.28
641.07,303.78
642.25,299.15
643.43,293.53
644.61,288.51
645.79,284.93
646.96,281.97
648.14,280.51
649.32,279.04
650.50,276.28
651.68,273.40
652.86,270.42
654.04,268.36
655.21,267.09
656.39,264.77
657.57,261.54
658.75,260.13
659.93,260.90
661.11,260.94
662.29,258.76
663.46,255.62
664.64,252.66
665.82,249.67
667.00,247.83
668.18,246.00
669.36,241.40
670.54,236.37
671.71,231.91
672.89,228.39
674.07,225.11
675.25,221.21
676.43,216.31
677.61,210.60
678.79,204.98
679.96,200.18
681.14,195.62
682.32,190.70
683.50,185.99
684.68,184.09
685.86,182.19
687.04,179.29
688.21,176.87
689.39,174.44
690.57,171.70
691.75,168.47
692.93,164.48
694.11,159.92
695.29,156.29
696.46,155.17
697.64,155.99
698.82,156.31
700.00,154.45
701.00,150.91
702.98,147.36
704.96,146.06
706.94,144.76
708.92,142.64
710.90,140.35
712.88,138.40
714.86,137.63
716.84,137.49
718.82,136.83
720.80,135.50
722.78,134.06
724.76,132.71
726.74,131.37
728.72,129.73
730.70,127.60
732.68,125.54
734.66,124.98
736.64,124.41
738.62,123.93
740.60,123.11
742.58,121.87
744.56,120.84
746.54,120.12
748.52,119.11
750.50,117.41
752.48,115.53
754.46,114.09
756.44,112.63
758.42,110.41
760.40,107.63
762.38,104.73
764.36,101.89
766.34,100.79
768.32,99.68
770.30,98.59
772.28,98.43
774.26,98.55
776.24,98.05
778.22,96.59
780.20,95.00
782.18,94.12
784.16,93.80
786.14,93.26
788.12,91.61
790.10,88.97
792.08,86.67
794.06,85.35
796.04,84.76
798.02,84.18
800.00,82.59
801.00,81.30
803.36,80.76
805.71,80.41
808.07,79.85
810.43,79.16
812.79,78.54
815.14,78.33
817.50,78.38
819.86,78.00
822.21,76.75
824.57,75.21
826.93,74.53
829.29,74.91
831.64,75.05
834.00,75.19
836.36,74.35
838.71,72.53
841.07,70.52
843.43,68.87
845.79,67.41
848.14,66.02
850.50,65.01
852.86,64.30
855.21,63.62
857.57,62.99
859.93,62.04
862.29,60.19
864.64,58.01
867.00,56.95
869.36,57.03
871.71,57.11
874.07,57.03
876.43,56.03
878.79,54.93
881.14,54.31
883.50,54.10
885.86,54.08
888.21,53.79
890.57,52.95
892.93,52.02
895.29,51.37
897.64,50.62
900.00,49.60
901.00,48.92
904.67,48.98
908.33,49.05
912.00,49.34
915.67,48.44
919.33,45.96
923.00,43.25
926.67,41.77
930.33,41.46
934.00,41.42
937.67,41.46
941.33,41.95
945.00,42.46
948.67,42.09
952.33,40.97
956.00,39.87
959.67,39.14
963.33,38.92
967.00,38.70
970.67,38.16
974.33,37.54
978.00,37.56
981.67,38.38
985.33,39.21
989.00,39.35
992.67,38.37
996.33,36.55
1000.00,35.13
1001.00,34.95
1006.10,35.27
1011.21,34.87
1016.31,33.61
1021.41,32.97
1026.51,32.32
1031.62,31.44
1036.72,30.76
1041.82,30.37
1046.92,30.49
1052.03,30.76
1057.13,31.02
1062.23,31.57
1067.33,32.25
1072.44,32.63
1077.54,32.89
1082.64,33.03
1087.74,32.70
1092.85,32.19
1097.95,31.85
1103.05,31.45
1108.15,31.04
1113.26,29.83
1118.36,29.37
1123.46,29.17
1128.56,27.79
1133.67,26.14
1138.77,26.04
1143.87,27.33
1148.97,28.97
1154.08,30.10
1159.18,30.13
1164.28,29.45
1169.38,28.52
1174.49,27.08
1179.59,26.28
1184.69,25.47
1189.79,24.47
1194.90,24.28
1200.00,24.75
1201.00,25.79
1210.06,26.69
1219.12,26.63
1228.18,25.79
1237.24,24.78
1246.30,23.71
1255.36,22.70
1264.42,22.26
1273.48,22.44
1282.55,22.54
1291.61,22.07
1300.67,21.80
1309.73,21.53
1318.79,21.53
1327.85,21.95
1336.91,22.51
1345.97,22.90
1355.03,22.94
1364.09,23.04
1373.15,23.72
1382.21,24.56
1391.27,24.87
1400.33,24.77
1409.39,24.73
1418.45,25.08
1427.52,25.42
1436.58,24.95
1445.64,24.49
1454.70,22.16
1463.76,20.34
1472.82,20.60
1481.88,22.42
1490.94,23.77
1500.00,23.32
1501.00,22.10
1510.24,21.60
1519.48,21.73
1528.72,21.61
1537.96,20.72
1547.20,19.33
1556.44,18.59
1565.69,18.94
1574.93,19.26
1584.17,19.59
1593.41,19.89
1602.65,19.93
1611.89,19.93
1621.13,20.21
1630.37,20.77
1639.61,20.75
1648.85,19.49
1658.09,17.95
1667.33,17.13
1676.57,16.96
1685.81,17.36
1695.06,18.12
1704.30,18.69
1713.54,18.82
1722.78,18.96
1732.02,18.97
1741.26,18.52
1750.50,17.98
1759.74,18.06
1768.98,18.70
1778.22,19.27
1787.46,19.79
1796.70,20.39
1805.94,20.41
1815.19,19.54
1824.43,18.47
1833.67,17.82
1842.91,17.86
1852.15,18.60
1861.39,19.06
1870.63,19.51
1879.87,19.97
1889.11,19.92
1898.35,19.66
1907.59,19.38
1916.83,19.08
1926.07,18.86
1935.31,19.12
1944.56,19.80
1953.80,19.99
1963.04,18.92
1972.28,17.21
1981.52,16.31
1990.76,16.41
2000.00,16.37
2001.00,16.32
2018.22,15.64
2035.45,15.18
2052.67,15.59
2069.90,16.77
2087.12,18.01
2104.34,18.44
2121.57,17.67
2138.79,16.28
2156.02,15.46
2173.24,15.69
2190.47,16.30
2207.69,16.56
2224.91,16.55
2242.14,16.81
2259.36,16.97
2276.59,17.14
2293.81,16.70
2311.03,15.72
2328.26,15.74
2345.48,17.09
2362.71,18.17
2379.93,17.71
2397.16,16.33
2414.38,15.66
2431.60,16.37
2448.83,17.75
2466.05,18.92
2483.28,19.14
2500.50,18.23
2517.72,17.70
2534.95,17.17
2552.17,16.90
2569.40,16.89
2586.62,16.55
2603.84,16.14
2621.07,15.60
2638.29,14.71
2655.52,14.03
2672.74,13.99
2689.97,14.34
2707.19,15.00
2724.41,15.99
2741.64,16.94
2758.86,17.49
2776.09,17.36
2793.31,16.85
2810.53,16.33
2827.76,15.04
