Size (bp),Intensity
0.58,2188.49
1.00,1878.22
2.00,1285.96
2.42,721.54
2.84,357.46
3.26,183.49
3.68,116.54
4.10,93.35
4.52,86.40
4.94,85.65
5.36,85.83
5.79,86.01
6.21,84.80
6.63,81.34
7.05,75.46
7.47,66.79
7.89,55.85
8.31,44.70
8.73,35.23
9.15,28.24
9.57,23.96
9.99,21.99
10.41,20.93
10.83,19.29
11.25,17.15
11.67,15.71
12.09,15.18
12.52,14.43
12.94,12.73
13.36,10.70
13.78,9.50
14.20,9.50
14.62,9.50
15.04,10.03
15.46,10.03
15.88,8.81
16.30,7.05
16.72,6.66
17.14,8.31
17.56,9.95
17.98,9.36
18.40,7.22
18.82,6.13
19.24,7.20
19.67,9.13
20.09,10.16
20.51,9.94
20.93,9.14
21.35,8.27
21.77,7.35
22.19,6.53
22.61,6.21
23.03,6.25
23.45,6.28
23.87,6.18
24.29,5.55
24.71,4.64
25.13,3.71
25.55,2.90
25.97,2.55
26.39,2.68
26.82,2.91
27.24,3.24
27.66,3.60
28.08,3.57
28.50,3.08
28.92,2.80
29.34,3.24
29.76,3.90
30.18,4.21
30.60,4.43
31.02,4.74
31.44,5.04
31.86,5.42
32.28,5.56
32.70,5.71
33.12,5.32
33.55,4.32
33.97,3.76
34.39,3.87
34.81,3.89
35.23,3.89
35.65,4.29
36.07,4.75
36.49,5.34
36.91,6.73
37.33,8.57
37.75,9.95
38.17,10.76
38.59,11.31
39.01,11.36
39.43,10.72
39.85,9.89
40.27,9.25
40.70,8.59
41.12,8.33
41.54,8.06
41.96,8.22
42.38,9.05
42.80,9.89
43.22,10.23
43.64,9.91
44.06,8.63
44.48,6.64
44.90,5.72
45.32,6.97
45.74,8.56
46.16,8.55
46.58,7.66
47.00,6.97
47.42,6.11
47.85,5.27
48.27,5.46
48.69,6.50
49.11,7.72
49.53,9.21
49.95,9.89
50.37,10.57
50.79,10.66
51.21,9.26
51.63,7.41
52.05,6.32
52.47,5.99
52.89,5.68
53.31,5.76
53.73,7.12
54.15,8.84
54.58,9.38
55.00,9.09
55.42,8.99
55.84,9.04
56.26,8.74
56.68,8.32
57.10,8.32
57.52,8.56
57.94,8.35
58.36,7.68
58.78,7.35
59.20,7.03
59.62,6.45
60.04,5.48
60.46,4.07
60.88,2.95
61.30,2.61
61.73,2.95
62.15,3.58
62.57,3.86
62.99,3.47
63.41,2.76
63.83,2.70
64.25,3.92
64.67,5.28
65.09,4.89
65.51,3.00
65.93,1.69
66.35,1.87
66.77,2.80
67.19,3.84
67.61,4.83
68.03,5.02
68.45,5.22
68.88,4.88
69.30,4.63
69.72,5.22
70.14,6.25
70.56,6.47
70.98,5.38
71.40,3.88
71.82,3.02
72.24,3.04
72.66,3.38
73.08,3.11
73.50,1.94
73.92,0.63
74.34,0.07
74.76,0.54
75.18,1.66
75.61,2.79
76.03,3.38
76.45,3.13
76.87,2.79
77.29,2.44
77.71,2.07
78.13,1.85
78.55,1.41
78.97,1.07
79.39,1.18
79.81,1.84
80.23,2.68
80.65,2.87
81.07,2.06
81.49,0.96
81.91,0.57
82.33,1.14
82.76,2.26
83.18,3.54
83.60,4.48
84.02,4.37
84.44,3.06
84.86,1.57
85.28,1.31
85.70,1.82
86.12,2.33
86.54,3.22
86.96,2.90
87.38,1.78
87.80,0.95
88.22,0.90
88.64,1.25
89.06,1.86
89.48,3.14
89.91,4.69
90.33,5.28
90.75,4.66
91.17,4.06
91.59,4.83
92.01,6.52
92.43,7.03
92.85,5.63
93.27,4.38
93.69,4.92
94.11,6.13
94.53,6.47
94.95,6.25
95.37,6.02
95.79,5.43
96.21,5.08
96.64,4.91
97.06,4.58
97.48,4.44
97.90,5.15
98.32,6.35
98.74,7.15
99.16,7.46
99.58,8.18
100.00,9.90
101.00,11.82
101.52,12.63
102.04,12.16
102.56,11.23
103.08,10.38
103.61,9.63
104.13,8.77
104.65,7.73
105.17,7.14
105.69,6.56
106.21,5.24
106.73,4.03
107.25,3.45
107.77,3.59
108.29,4.28
108.82,5.65
109.34,7.39
109.86,8.60
110.38,9.00
110.90,8.70
111.42,7.59
111.94,5.78
112.46,4.08
112.98,3.23
113.51,3.29
114.03,3.86
114.55,4.62
115.07,5.42
115.59,5.61
116.11,5.24
116.63,4.87
117.15,4.33
117.67,4.75
118.19,5.22
118.72,4.97
119.24,4.56
119.76,4.72
120.28,5.52
120.80,6.63
121.32,7.42
121.84,7.30
122.36,6.58
122.88,6.24
123.41,6.30
123.93,6.13
124.45,5.75
124.97,5.41
125.49,4.99
126.01,4.61
126.53,4.55
127.05,4.66
127.57,4.62
128.09,4.58
128.62,4.32
129.14,4.36
129.66,5.05
130.18,5.74
130.70,5.46
131.22,4.35
131.74,3.41
132.26,3.26
132.78,3.66
133.31,3.93
133.83,3.98
134.35,4.68
134.87,6.31
135.39,7.92
135.91,8.74
136.43,8.71
136.95,7.93
137.47,6.53
137.99,4.57
138.52,3.71
139.04,2.85
139.56,2.98
140.08,4.98
140.60,6.76
141.12,7.12
141.64,6.75
142.16,6.51
142.68,6.79
143.21,7.34
143.73,7.34
144.25,6.83
144.77,6.81
145.29,7.28
145.81,7.22
146.33,6.73
146.85,6.91
147.37,7.89
147.89,9.00
148.42,9.63
148.94,9.13
149.46,8.45
149.98,7.78
150.50,7.42
151.02,8.95
151.54,11.10
152.06,12.60
152.58,13.27
153.11,13.02
153.63,11.78
154.15,10.10
154.67,8.89
155.19,8.52
155.71,8.27
156.23,7.47
156.75,6.43
157.27,6.02
157.79,6.85
158.32,8.36
158.84,9.12
159.36,8.55
159.88,7.71
160.40,7.62
160.92,7.52
161.44,8.26
161.96,10.26
162.48,13.05
163.01,14.84
163.53,14.45
164.05,12.77
164.57,11.63
165.09,12.02
165.61,13.84
166.13,16.98
166.65,21.31
167.17,25.15
167.69,26.10
168.22,23.60
168.74,19.03
169.26,13.92
169.78,9.68
170.30,7.59
170.82,7.42
171.34,7.68
171.86,7.75
172.38,7.81
172.91,8.33
173.43,9.69
173.95,12.11
174.47,15.22
174.99,18.06
175.51,20.39
176.03,22.51
176.55,24.11
177.07,24.86
177.59,25.69
178.12,27.66
178.64,30.23
179.16,32.56
179.68,34.91
180.20,37.13
180.72,38.70
181.24,40.77
181.76,45.22
182.28,52.25
182.81,55.90
183.33,59.55
183.85,63.94
184.37,64.28
184.89,62.05
185.41,58.94
185.93,55.79
186.45,53.29
186.97,51.32
187.49,48.36
188.02,43.79
188.54,39.01
189.06,35.12
189.58,31.82
190.10,29.37
190.62,28.68
191.14,29.65
191.66,30.98
192.18,30.63
192.71,26.91
193.23,20.76
193.75,18.03
194.27,15.31
194.79,12.23
195.31,10.70
195.83,9.60
196.35,8.46
196.87,7.14
197.39,6.07
197.92,5.79
198.44,6.18
198.96,7.15
199.48,8.73
200.00,10.28
201.00,11.06
201.59,11.31
202.17,11.70
202.76,12.50
203.34,13.47
203.93,14.08
204.51,14.40
205.10,15.47
205.69,17.97
206.27,19.87
206.86,21.78
207.44,26.23
208.03,30.05
208.62,32.03
209.20,32.00
209.79,31.33
210.37,33.27
210.96,41.02
211.54,54.25
212.13,68.05
212.72,75.63
213.30,72.46
213.89,59.21
214.47,42.02
215.06,28.47
215.64,22.03
216.23,21.02
216.82,21.94
217.40,22.77
217.99,23.88
218.57,25.29
219.16,26.71
219.75,31.72
220.33,37.76
220.92,42.55
221.50,44.15
222.09,43.27
222.67,43.80
223.26,48.43
223.85,54.66
224.43,57.12
225.02,52.87
225.60,43.49
226.19,32.95
226.78,24.84
227.36,20.70
227.95,19.40
228.53,19.04
229.12,19.01
229.70,19.37
230.29,19.84
230.88,19.95
231.46,20.06
232.05,20.00
232.63,20.00
233.22,20.29
233.80,20.54
234.39,20.36
234.98,19.89
235.56,19.50
236.15,19.40
236.73,19.23
237.32,18.08
237.91,16.33
238.49,15.64
239.08,16.39
239.66,17.62
240.25,18.76
240.83,19.97
241.42,21.45
242.01,22.48
242.59,21.89
243.18,19.72
243.76,18.48
244.35,17.24
244.93,15.86
245.52,16.36
246.11,18.47
246.69,21.00
247.28,22.25
247.86,21.52
248.45,20.39
249.04,20.88
249.62,22.69
250.21,24.46
250.79,26.21
251.38,28.11
251.96,28.93
252.55,28.10
253.14,26.80
253.72,25.91
254.31,25.38
254.89,25.22
255.48,25.80
256.07,26.57
256.65,27.33
257.24,28.98
257.82,29.34
258.41,28.82
258.99,28.88
259.58,29.12
260.17,28.74
260.75,28.82
261.34,30.57
261.92,33.98
262.51,38.18
263.09,42.43
263.68,46.96
264.27,52.14
264.85,57.28
265.44,61.21
266.02,63.45
266.61,64.89
267.20,67.34
267.78,71.54
268.37,73.82
268.95,76.09
269.54,79.40
270.12,81.90
270.71,85.23
271.30,90.61
271.88,98.61
272.47,109.36
273.05,122.14
273.64,134.84
274.22,144.20
274.81,147.62
275.40,145.87
275.98,143.23
276.57,143.53
277.15,146.66
277.74,149.80
278.33,150.45
278.91,147.66
279.50,142.60
280.08,138.61
280.67,138.85
281.25,139.10
281.84,145.28
282.43,155.44
283.01,165.71
283.60,174.21
284.18,184.75
284.77,204.46
285.36,238.83
285.94,289.52
286.53,353.46
287.11,424.13
287.70,496.19
288.28,568.33
288.87,639.73
289.46,704.10
290.04,749.54
290.63,765.88
291.21,751.95
291.80,716.13
292.38,673.41
292.97,640.06
293.56,632.76
294.14,625.46
294.73,628.24
295.31,642.62
295.90,668.15
296.49,711.79
297.07,783.07
297.66,890.18
298.24,1037.71
298.83,1224.71
299.41,1448.40
300.00,1714.56
301.00,2043.82
301.70,2478.37
302.39,3117.90
303.09,4161.06
303.79,5825.53
304.49,8100.59
305.18,10585.15
305.88,12761.45
306.58,14636.12
307.27,15835.97
307.97,17035.83
308.67,20855.94
309.37,25740.19
310.06,29667.19
310.76,30177.27
311.46,26311.97
312.15,19480.16
312.85,12342.70
313.55,6887.91
314.25,3589.41
314.94,1928.77
315.64,1202.85
316.34,910.13
317.04,781.83
317.73,702.71
318.43,636.82
319.13,579.10
319.82,530.69
320.52,492.13
321.22,462.96
321.92,451.47
322.61,439.97
323.31,416.65
324.01,386.90
324.70,349.10
325.40,305.90
326.10,262.21
326.80,223.85
327.49,194.38
328.19,172.46
328.89,154.49
329.58,138.66
330.28,124.98
330.98,113.46
331.68,103.76
332.37,95.37
333.07,87.51
333.77,79.37
334.46,70.73
335.16,61.93
335.86,53.78
336.56,47.37
337.25,45.19
337.95,43.01
338.65,39.67
339.35,36.17
340.04,32.06
340.74,27.51
341.44,23.17
342.13,19.57
342.83,16.58
343.53,13.81
344.23,11.64
344.92,10.79
345.62,11.06
346.32,11.20
347.01,10.31
347.71,8.37
348.41,6.11
349.11,4.75
349.80,5.08
350.50,6.80
351.20,9.02
351.89,9.84
352.59,10.67
353.29,11.08
353.99,10.75
354.68,11.10
355.38,12.91
356.08,15.56
356.77,18.00
357.47,19.88
358.17,21.46
358.87,23.64
359.56,27.80
360.26,33.71
360.96,38.52
361.65,39.13
362.35,34.88
363.05,28.13
363.75,22.68
364.44,20.32
365.14,19.66
365.84,19.44
366.54,19.85
367.23,20.26
367.93,22.71
368.63,26.32
369.32,29.29
370.02,29.04
370.72,24.59
371.42,17.96
372.11,12.34
372.81,8.99
373.51,7.07
374.20,5.92
374.90,5.45
375.60,4.96
376.30,3.98
376.99,3.18
377.69,3.29
378.39,3.96
379.08,4.34
379.78,4.15
380.48,4.03
381.18,4.86
381.87,5.70
382.57,6.54
383.27,7.67
383.96,7.37
384.66,6.56
385.36,6.26
386.06,6.39
386.75,6.47
387.45,6.22
388.15,5.75
388.85,5.78
389.54,6.69
390.24,7.69
390.94,7.97
391.63,7.77
392.33,7.77
393.03,8.33
393.73,9.41
394.42,10.47
395.12,10.60
395.82,9.55
396.51,9.10
397.21,8.66
397.91,9.33
398.61,11.02
399.30,12.35
400.00,13.39
401.00,15.04
401.72,17.21
402.45,19.24
403.17,20.99
403.89,22.93
404.61,25.26
405.34,27.55
406.06,29.79
406.78,32.77
407.50,36.73
408.23,40.21
408.95,41.30
409.67,39.15
410.39,34.02
411.12,27.06
411.84,23.52
412.56,19.98
413.28,14.21
414.01,10.32
414.73,8.48
415.45,8.32
416.18,8.71
416.90,9.03
417.62,9.57
418.34,10.26
419.07,10.34
419.79,9.12
420.51,6.82
421.23,4.93
421.96,4.43
422.68,4.67
423.40,4.89
424.12,4.93
424.85,4.79
425.57,4.72
426.29,4.55
427.01,4.12
427.74,3.70
428.46,2.66
429.18,2.36
429.91,2.62
430.63,2.59
431.35,2.23
432.07,2.86
432.80,5.31
433.52,8.06
434.24,9.05
434.96,8.22
435.69,6.67
436.41,5.03
437.13,3.66
437.85,2.97
438.58,2.89
439.30,2.94
440.02,3.07
440.74,3.33
441.47,3.39
442.19,3.38
442.91,3.72
443.64,4.07
444.36,5.71
445.08,7.69
445.80,9.07
446.53,9.05
447.25,8.01
447.97,7.27
448.69,7.44
449.42,8.18
450.14,9.34
450.86,10.66
451.58,11.60
452.31,12.54
453.03,14.15
453.75,15.52
454.47,15.81
455.20,16.20
455.92,17.82
456.64,19.40
457.36,18.82
458.09,17.35
458.81,15.87
459.53,12.28
460.26,9.96
460.98,9.85
461.70,11.46
462.42,13.09
463.15,13.37
463.87,13.01
464.59,13.59
465.31,15.40
466.04,18.31
466.76,22.84
467.48,29.15
468.20,36.75
468.93,45.17
469.65,53.75
470.37,61.75
471.09,69.06
471.82,74.48
472.54,74.28
473.26,70.08
473.99,65.88
474.71,51.80
475.43,37.69
476.15,27.77
476.88,23.02
477.60,22.22
478.32,23.60
479.04,25.42
479.77,26.05
480.49,24.72
481.21,22.05
481.93,18.58
482.66,14.63
483.38,11.46
484.10,9.63
484.82,7.97
485.55,6.41
486.27,6.19
486.99,7.10
487.72,7.93
488.44,8.35
489.16,8.37
489.88,8.38
490.61,7.94
491.33,7.59
492.05,8.07
492.77,9.20
493.50,10.01
494.22,10.23
494.94,10.77
495.66,12.52
496.39,14.88
497.11,16.42
497.83,16.68
498.55,16.23
499.28,15.24
500.00,13.67
501.00,11.85
502.01,10.15
503.02,8.70
504.03,7.93
505.04,8.07
506.05,8.39
507.06,8.72
508.07,9.84
509.08,11.54
510.09,12.65
511.10,11.72
512.11,9.12
513.12,6.97
514.13,6.69
515.14,7.47
516.15,7.78
517.16,7.64
518.17,7.83
519.18,8.20
520.19,8.53
521.20,9.44
522.21,11.22
523.22,13.03
524.23,14.13
525.24,15.14
526.26,17.31
527.27,18.98
528.28,20.64
529.29,24.07
530.30,27.13
531.31,29.96
532.32,32.39
533.33,34.58
534.34,36.88
535.35,38.75
536.36,39.61
537.37,39.71
538.38,38.99
539.39,36.97
540.40,33.47
541.41,28.40
542.42,22.55
543.43,17.98
544.44,15.54
545.45,14.35
546.46,14.01
547.47,14.88
548.48,16.84
549.49,17.91
550.50,18.99
551.51,20.01
552.52,19.54
553.53,19.59
554.54,22.13
555.55,26.76
556.56,32.21
557.57,38.03
558.58,43.78
559.59,48.15
560.60,49.57
561.61,48.34
562.62,46.70
563.63,45.93
564.64,45.64
565.65,45.67
566.66,46.50
567.67,48.39
568.68,51.50
569.69,56.39
570.70,60.37
571.71,64.36
572.72,77.11
573.73,95.56
574.74,119.22
575.76,147.16
576.77,178.70
577.78,211.75
578.79,240.59
579.80,256.56
580.81,252.38
581.82,227.70
582.83,190.88
583.84,154.31
584.85,127.58
585.86,113.53
586.87,108.66
587.88,106.19
588.89,100.75
589.90,91.08
590.91,78.75
591.92,72.32
592.93,65.90
593.94,54.04
594.95,43.54
595.96,34.10
596.97,26.19
597.98,20.82
598.99,17.99
600.00,16.82
601.00,16.27
602.18,15.57
603.36,15.19
604.54,16.37
605.71,18.88
606.89,21.57
608.07,24.06
609.25,26.21
610.43,27.59
611.61,28.15
612.79,27.79
613.96,25.57
615.14,23.46
616.32,21.35
617.50,16.81
618.68,13.17
619.86,10.23
621.04,8.21
622.21,7.56
623.39,7.53
624.57,7.32
625.75,6.98
626.93,6.48
628.11,5.62
629.29,4.67
630.46,4.25
631.64,4.64
632.82,5.69
634.00,6.92
635.18,7.25
636.36,5.97
637.54,4.16
638.71,3.08
639.89,2.38
641.07,1.97
642.25,1.56
643.43,1.39
644.61,2.72
645.79,5.38
646.96,7.86
648.14,8.49
649.32,7.97
650.50,8.46
651.68,9.75
652.86,10.58
654.04,11.39
655.21,12.35
656.39,12.22
657.57,11.13
658.75,10.55
659.93,10.77
661.11,10.93
662.29,10.61
663.46,10.21
664.64,10.65
665.82,11.54
667.00,12.43
668.18,14.82
669.36,17.48
670.54,21.41
671.71,27.18
672.89,33.90
674.07,40.48
675.25,46.74
676.43,53.16
677.61,59.52
678.79,64.26
679.96,65.20
681.14,61.26
682.32,53.62
683.50,44.57
684.68,36.18
685.86,30.12
687.04,26.51
688.21,23.37
689.39,19.00
690.57,16.35
691.75,13.70
692.93,8.90
694.11,5.81
695.29,4.40
696.46,3.75
697.64,3.56
698.82,4.12
700.00,5.17
701.00,6.20
702.98,6.67
704.96,5.73
706.94,3.33
708.92,0.97
710.90,0.23
712.88,0.84
714.86,1.14
716.84,0.33
718.82,-0.78
720.80,-1.11
722.78,-0.34
724.76,1.02
726.74,1.52
728.72,2.02
730.70,2.19
732.68,2.11
734.66,2.68
736.64,4.05
738.62,5.33
740.60,5.39
742.58,4.60
744.56,4.49
746.54,5.44
748.52,6.52
750.50,7.01
752.48,6.35
754.46,4.41
756.44,2.27
758.42,1.13
760.40,1.07
762.38,1.46
764.36,1.66
766.34,1.60
768.32,1.92
770.30,2.24
772.28,4.27
774.26,6.18
776.24,6.01
778.22,4.56
780.20,3.92
782.18,4.18
784.16,4.23
786.14,3.82
788.12,3.15
790.10,2.40
792.08,2.20
794.06,2.73
796.04,3.34
798.02,3.61
800.00,3.64
801.00,3.65
803.36,3.73
805.71,3.79
808.07,4.12
810.43,4.54
812.79,4.95
815.14,5.40
817.50,4.58
819.86,3.09
822.21,2.39
824.57,3.20
826.93,4.84
829.29,5.89
831.64,5.81
834.00,5.24
836.36,4.80
838.71,4.61
841.07,4.45
843.43,3.97
845.79,2.96
848.14,1.92
850.50,1.83
852.86,2.63
855.21,3.18
857.57,3.11
859.93,3.30
862.29,3.74
864.64,4.18
867.00,5.18
869.36,5.52
871.71,4.91
874.07,4.05
876.43,3.99
878.79,4.80
881.14,6.10
883.50,7.93
885.86,9.85
888.21,10.55
890.57,9.30
892.93,6.88
895.29,4.87
897.64,3.99
900.00,3.49
901.00,2.62
904.67,1.51
908.33,0.18
912.00,-1.15
915.67,-1.26
919.33,-1.36
923.00,-0.35
926.67,0.25
930.33,-0.50
934.00,-1.60
937.67,-2.18
941.33,-2.58
945.00,-2.80
948.67,-2.19
952.33,-0.97
956.00,0.12
959.67,0.95
963.33,1.47
967.00,1.44
970.67,1.01
974.33,0.55
978.00,0.08
981.67,-0.45
985.33,-0.92
989.00,-1.06
992.67,-0.93
996.33,-0.80
1000.00,-0.53
1001.00,-0.86
1006.10,-1.61
1011.21,-1.84
1016.31,-1.56
1021.41,-1.83
1026.51,-2.42
1031.62,-2.06
1036.72,-1.14
1041.82,-0.87
1046.92,-0.65
1052.03,0.35
1057.13,0.97
1062.23,0.18
1067.33,-1.17
1072.44,-1.81
1077.54,-1.76
1082.64,-1.85
1087.74,-2.07
1092.85,-1.77
1097.95,-1.46
1103.05,0.19
1108.15,1.88
1113.26,2.43
1118.36,1.69
1123.46,0.60
1128.56,-0.09
1133.67,-0.18
1138.77,0.35
1143.87,1.09
1148.97,1.42
1154.08,1.57
1159.18,2.18
1164.28,3.20
1169.38,4.03
1174.49,4.34
1179.59,4.59
1184.69,5.12
1189.79,5.39
1194.90,5.15
1200.00,4.82
1201.00,4.50
1210.06,4.17
1219.12,2.82
1228.18,1.64
1237.24,1.64
1246.30,2.50
1255.36,3.00
1264.42,2.19
1273.48,0.23
1282.55,-1.28
1291.61,-1.11
1300.67,-0.03
1309.73,0.58
1318.79,0.52
1327.85,0.00
1336.91,-0.87
1345.97,-1.39
1355.03,-0.84
1364.09,0.16
1373.15,0.44
1382.21,-0.14
1391.27,-0.34
1400.33,-0.54
1409.39,0.02
1418.45,0.97
1427.52,1.33
1436.58,1.21
1445.64,1.36
1454.70,1.86
1463.76,1.99
1472.82,1.58
1481.88,1.55
1490.94,2.32
1500.00,2.91
1501.00,2.69
1510.24,2.54
1519.48,2.85
1528.72,2.55
1537.96,1.48
1547.20,1.12
1556.44,2.10
1565.69,2.88
1574.93,2.48
1584.17,2.07
1593.41,0.79
1602.65,0.74
1611.89,1.49
1621.13,1.82
1630.37,1.54
1639.61,0.81
1648.85,-0.11
1658.09,-0.44
1667.33,0.15
1676.57,0.76
1685.81,0.37
1695.06,-0.71
1704.30,-1.30
1713.54,-1.13
1722.78,-0.99
1732.02,-1.16
1741.26,-0.99
1750.50,-0.08
1759.74,1.25
1768.98,2.48
1778.22,2.88
1787.46,3.28
1796.70,3.84
1805.94,4.66
1815.19,5.56
1824.43,5.97
1833.67,5.73
1842.91,4.89
1852.15,3.45
1861.39,2.20
1870.63,2.09
1879.87,2.84
1889.11,3.28
1898.35,2.50
1907.59,0.78
1916.83,-0.25
1926.07,0.49
1935.31,2.07
1944.56,3.11
1953.80,3.41
1963.04,3.58
1972.28,3.91
1981.52,4.24
1990.76,5.04
2000.00,4.68
2001.00,2.83
2018.22,1.26
2035.45,1.38
2052.67,2.02
2069.90,1.66
2087.12,1.19
2104.34,1.93
2121.57,3.12
2138.79,3.32
2156.02,2.62
2173.24,2.16
2190.47,2.34
2207.69,2.51
2224.91,2.35
2242.14,2.09
2259.36,1.88
2276.59,1.98
2293.81,2.30
2311.03,2.62
2328.26,3.48
2345.48,3.87
2362.71,3.65
2379.93,3.35
2397.16,3.29
2414.38,3.11
2431.60,2.57
2448.83,2.11
2466.05,1.89
2483.28,1.59
2500.50,1.31
2517.72,1.42
2534.95,1.42
2552.17,0.72
2569.40,-0.03
2586.62,-0.20
2603.84,-0.27
2621.07,-0.47
2638.29,-0.61
2655.52,-0.91
2672.74,-1.14
2689.97,-1.37
2707.19,-1.48
2724.41,-0.87
2741.64,0.50
2758.86,2.25
2776.09,3.64
2793.31,4.35
2810.53,4.60
2827.76,4.75
2844.98,4.82
2862.21,4.53
2879.43,4.16
2896.66,4.29
2913.88,4.89
2931.10,5.22
2948.33,4.71
2965.55,3.75
2982.78,3.27
3000.00,3.71
3001.00,4.69
3025.99,5.18
3050.98,5.66
3075.98,6.63
3100.97,7.44
3125.96,7.12
3150.95,5.29
3175.94,3.01
3200.93,1.35
3225.93,0.77
3250.92,1.26
3275.91,2.18
3300.90,3.07
3325.89,4.09
3350.88,5.10
3375.87,5.65
3400.87,5.68
3425.86,5.45
3450.85,5.07
3475.84,4.40
3500.83,3.25
3525.82,2.20
3550.82,2.14
3575.81,2.09
3600.80,2.50
3625.79,2.65
3650.78,2.93
3675.77,3.75
3700.77,4.48
3725.76,4.59
3750.75,4.36
3775.74,4.25
3800.73,4.41
3825.73,4.67
3850.72,4.81
3875.71,4.84
3900.70,5.05
3925.69,5.72
3950.68,6.69
3975.68,6.91
4000.67,5.53
4025.66,3.33
4050.65,1.74
4075.64,1.48
4100.63,1.22
4125.62,1.41
4150.62,1.80
4175.61,2.05
4200.60,1.99
4225.59,1.77
4250.58,2.22
4275.58,3.82
4300.57,5.41
4325.56,5.58
4350.55,4.41
4375.54,3.05
4400.53,2.36
4425.52,2.24
4450.52,2.18
4475.51,2.37
4500.50,3.35
4525.49,4.85
4550.48,6.19
4575.48,7.34
4600.47,8.32
4625.46,8.52
4650.45,8.73
4675.44,8.35
4700.43,7.70
4725.42,7.57
4750.42,8.46
4775.41,9.93
4800.40,11.03
4825.39,11.24
4850.38,10.43
4875.37,8.92
4900.37,7.64
4925.36,6.89
4950.35,6.51
4975.34,6.67
5000.33,6.84
5025.33,6.50
5050.32,6.39
5075.31,6.84
5100.30,6.76
5125.29,5.72
5150.28,5.31
5175.27,4.90
5200.27,5.36
5225.26,6.59
5250.25,7.56
5275.24,8.30
5300.23,9.86
5325.23,12.25
5350.22,13.94
5375.21,14.44
5400.20,14.88
5425.19,15.59
5450.18,15.69
