Size (bp),Intensity
0.58,1958.28
1.00,1587.58
2.00,1027.65
2.42,545.15
2.84,256.60
3.26,128.12
3.68,82.68
4.10,69.19
4.52,65.94
4.94,65.17
5.36,64.33
5.79,62.68
6.21,61.11
6.63,59.54
7.05,54.47
7.47,47.77
7.89,39.88
8.31,31.03
8.73,22.31
9.15,15.80
9.57,12.34
9.99,10.95
10.41,10.91
10.83,12.03
11.25,13.20
11.67,13.28
12.09,12.46
12.52,11.14
12.94,9.27
13.36,7.19
13.78,5.39
14.20,4.00
14.62,3.15
15.04,2.84
15.46,3.39
15.88,5.24
16.30,6.37
16.72,7.51
17.14,8.62
17.56,8.24
17.98,7.05
18.40,6.00
18.82,5.61
19.24,5.16
19.67,3.79
20.09,2.53
20.51,2.75
20.93,3.79
21.35,4.32
21.77,4.24
22.19,3.88
22.61,3.56
23.03,3.56
23.45,3.71
23.87,3.42
24.29,2.47
24.71,1.16
25.13,-0.09
25.55,-1.05
25.97,-1.75
26.39,-2.00
26.82,-2.24
27.24,-2.40
27.66,-1.73
28.08,-0.17
28.50,1.38
28.92,2.08
29.34,2.05
29.76,1.68
30.18,1.14
30.60,0.55
31.02,0.08
31.44,0.26
31.86,1.47
32.28,3.08
32.70,3.98
33.12,3.64
33.55,2.33
33.97,0.62
34.39,-1.16
34.81,-2.73
35.23,-3.24
35.65,-1.63
36.07,1.94
36.49,3.92
36.91,5.90
37.33,9.17
37.75,12.23
38.17,15.38
38.59,17.34
39.01,16.89
39.43,14.44
39.85,11.63
40.27,9.87
40.70,9.19
41.12,8.99
41.54,9.17
41.96,9.61
42.38,10.00
42.80,10.21
43.22,9.92
43.64,9.17
44.06,9.30
44.48,11.31
44.90,13.95
45.32,15.32
45.74,15.21
46.16,14.75
46.58,14.64
47.00,14.53
47.42,14.18
47.85,13.03
48.27,11.14
48.69,9.38
49.11,8.25
49.53,7.53
49.95,7.19
50.37,7.26
50.79,7.40
51.21,7.46
51.63,7.49
52.05,7.39
52.47,7.14
52.89,7.10
53.31,7.14
53.73,6.47
54.15,4.99
54.58,3.93
55.00,4.42
55.42,5.85
55.84,6.65
56.26,6.45
56.68,6.21
57.10,5.97
57.52,5.37
57.94,4.48
58.36,3.84
58.78,4.07
59.20,4.85
59.62,5.40
60.04,5.60
60.46,5.62
60.88,4.86
61.30,3.06
61.73,1.57
62.15,1.48
62.57,2.39
62.99,3.69
63.41,4.92
63.83,5.20
64.25,4.24
64.67,2.54
65.09,0.79
65.51,-0.03
65.93,0.76
66.35,2.64
66.77,3.47
67.19,4.30
67.61,4.77
68.03,4.26
68.45,3.50
68.88,2.55
69.30,1.37
69.72,0.75
70.14,1.33
70.56,2.27
70.98,2.15
71.40,0.87
71.82,-0.39
72.24,-0.85
72.66,-0.81
73.08,-0.93
73.50,-1.32
73.92,-1.22
74.34,0.10
74.76,1.99
75.18,2.92
75.61,2.41
76.03,1.44
76.45,1.01
76.87,1.15
77.29,1.30
77.71,1.83
78.13,1.88
78.55,1.43
78.97,1.27
79.39,1.32
79.81,0.76
80.23,0.00
80.65,0.21
81.07,1.38
81.49,2.50
81.91,2.69
82.33,2.23
82.76,2.31
83.18,3.38
83.60,4.66
84.02,5.39
84.44,5.19
84.86,4.07
85.28,2.54
85.70,1.59
86.12,1.74
86.54,2.12
86.96,1.91
87.38,1.70
87.80,0.70
88.22,0.02
88.64,0.32
89.06,1.56
89.48,2.94
89.91,3.71
90.33,3.81
90.75,4.11
91.17,5.40
91.59,6.68
92.01,6.69
92.43,6.08
92.85,5.79
93.27,5.17
93.69,3.85
94.11,3.06
94.53,3.78
94.95,5.30
95.37,6.37
95.79,6.42
96.21,5.44
96.64,4.08
97.06,3.96
97.48,3.84
97.90,5.55
98.32,8.24
98.74,11.04
99.16,15.39
99.58,23.05
100.00,32.52
101.00,39.48
101.52,40.30
102.04,34.65
102.56,25.62
103.08,17.14
103.61,11.15
104.13,7.73
104.65,6.25
105.17,5.61
105.69,5.38
106.21,6.03
106.73,7.39
107.25,8.74
107.77,9.62
108.29,9.58
108.82,8.49
109.34,7.10
109.86,6.72
110.38,6.34
110.90,6.28
111.42,6.43
111.94,7.04
112.46,8.56
112.98,9.82
113.51,9.46
114.03,8.05
114.55,6.58
115.07,5.23
115.59,4.45
116.11,5.32
116.63,7.60
117.15,9.11
117.67,8.05
118.19,5.44
118.72,3.78
119.24,3.69
119.76,3.68
120.28,2.93
120.80,2.14
121.32,1.83
121.84,1.95
122.36,2.07
122.88,2.20
123.41,2.52
123.93,3.54
124.45,5.34
124.97,6.50
125.49,6.05
126.01,4.73
126.53,3.59
127.05,2.69
127.57,1.62
128.09,0.89
128.62,1.25
129.14,2.19
129.66,3.12
130.18,4.17
130.70,4.83
131.22,4.74
131.74,4.86
132.26,5.49
132.78,5.79
133.31,5.47
133.83,4.74
134.35,3.91
134.87,3.82
135.39,3.73
135.91,4.36
136.43,4.57
136.95,3.67
137.47,3.01
137.99,3.46
138.52,3.71
139.04,3.09
139.56,2.61
140.08,3.05
140.60,4.21
141.12,5.42
141.64,6.55
142.16,8.23
142.68,9.80
143.21,9.35
143.73,7.07
144.25,5.25
144.77,4.92
145.29,5.72
145.81,7.21
146.33,8.44
146.85,8.82
147.37,9.03
147.89,9.24
148.42,9.97
148.94,9.88
149.46,8.76
149.98,7.39
150.50,6.24
151.02,5.58
151.54,5.70
152.06,6.58
152.58,7.86
153.11,8.98
153.63,9.72
154.15,10.36
154.67,10.88
155.19,10.84
155.71,10.31
156.23,9.85
156.75,9.57
157.27,9.48
157.79,9.91
158.32,10.73
158.84,11.17
159.36,10.78
159.88,10.36
160.40,9.95
160.92,9.64
161.44,10.99
161.96,14.72
162.48,20.37
163.01,25.70
163.53,28.44
164.05,28.60
164.57,28.23
165.09,30.61
165.61,40.10
166.13,58.23
166.65,78.70
167.17,90.24
167.69,85.75
168.22,67.64
168.74,45.07
169.26,26.82
169.78,16.23
170.30,11.47
170.82,9.26
171.34,7.75
171.86,6.70
172.38,6.41
172.91,6.12
173.43,5.64
173.95,5.03
174.47,4.44
174.99,4.17
175.51,4.26
176.03,4.93
176.55,6.49
177.07,8.40
177.59,9.42
178.12,8.99
178.64,7.70
179.16,6.80
179.68,6.77
180.20,6.96
180.72,7.08
181.24,7.36
181.76,7.77
182.28,8.36
182.81,9.17
183.33,9.97
183.85,11.26
184.37,14.11
184.89,16.04
185.41,17.97
185.93,20.42
186.45,19.89
186.97,17.39
187.49,14.77
188.02,12.82
188.54,11.36
189.06,10.04
189.58,9.06
190.10,8.92
190.62,9.49
191.14,10.12
191.66,10.36
192.18,9.99
192.71,9.10
193.23,8.20
193.75,8.08
194.27,9.62
194.79,12.75
195.31,16.09
195.83,18.40
196.35,19.03
196.87,17.70
197.39,16.62
197.92,15.53
198.44,14.84
198.96,16.45
199.48,18.94
200.00,20.88
201.00,22.20
201.59,23.36
202.17,24.85
202.76,27.34
203.34,31.94
203.93,39.94
204.51,50.99
205.10,61.47
205.69,66.52
206.27,64.30
206.86,57.67
207.44,51.66
208.03,49.30
208.62,50.49
209.20,56.09
209.79,71.19
210.37,101.21
210.96,144.34
211.54,165.91
212.13,187.47
212.72,210.60
213.30,200.29
213.89,161.45
214.47,114.24
215.06,78.45
215.64,61.03
216.23,57.21
216.82,59.57
217.40,64.17
217.99,72.02
218.57,89.47
219.16,125.25
219.75,180.94
220.33,242.21
220.92,283.63
221.50,288.64
222.09,265.74
222.67,240.27
223.26,227.28
223.85,217.28
224.43,191.90
225.02,147.10
225.60,121.89
226.19,96.67
226.78,57.35
227.36,35.93
227.95,29.11
228.53,30.24
229.12,33.52
229.70,35.11
230.29,34.25
230.88,32.74
231.46,32.21
232.05,33.14
232.63,35.41
233.22,39.04
233.80,45.00
234.39,54.46
234.98,66.32
235.56,77.00
236.15,82.88
236.73,81.93
237.32,74.64
237.91,64.77
238.49,57.13
239.08,54.10
239.66,54.56
240.25,55.01
240.83,57.39
241.42,58.26
242.01,55.79
242.59,50.67
243.18,45.35
243.76,41.78
244.35,40.28
244.93,41.24
245.52,46.82
246.11,59.00
246.69,75.47
247.28,89.32
247.86,93.67
248.45,86.52
249.04,71.74
249.62,56.20
250.21,45.11
250.79,39.66
251.38,38.43
251.96,39.39
252.55,40.71
253.14,41.62
253.72,42.16
254.31,42.70
254.89,44.81
255.48,48.22
256.07,52.37
256.65,56.12
257.24,59.32
257.82,63.73
258.41,71.56
258.99,83.60
259.58,98.87
260.17,114.36
260.75,125.28
261.34,128.15
261.92,123.98
262.51,117.55
263.09,113.52
263.68,113.82
264.27,118.08
264.85,125.39
265.44,135.52
266.02,149.51
266.61,169.33
267.20,195.87
267.78,211.23
268.37,226.59
268.95,254.39
269.54,269.50
270.12,264.87
270.71,240.64
271.30,204.13
271.88,165.93
272.47,134.48
273.05,112.74
273.64,99.47
274.22,92.32
274.81,89.45
275.40,90.08
275.98,93.78
276.57,99.70
277.15,106.94
277.74,114.35
278.33,120.50
278.91,124.94
279.50,129.18
280.08,136.15
280.67,148.45
281.25,165.68
281.84,174.74
282.43,183.81
283.01,198.45
283.60,209.49
284.18,223.40
284.77,251.09
285.36,302.58
285.94,382.19
286.53,486.92
287.11,610.56
287.70,751.30
288.28,909.70
288.87,1072.90
289.46,1203.93
290.04,1255.38
290.63,1202.73
291.21,1068.53
291.80,910.51
292.38,781.25
292.97,699.66
293.56,656.29
294.14,635.17
294.73,628.19
295.31,636.60
295.90,650.94
296.49,665.27
297.07,716.15
297.66,785.16
298.24,863.32
298.83,940.87
299.41,1012.86
300.00,1083.72
301.00,1168.88
301.70,1293.03
302.39,1486.94
303.09,1791.70
303.79,2269.34
304.49,2992.49
305.18,4021.37
305.88,5470.21
306.58,7694.80
307.27,11298.07
307.97,16570.23
308.67,22669.81
309.37,27496.97
310.06,28736.26
310.76,25459.68
311.46,18964.56
312.15,15430.47
312.85,11896.38
313.55,6395.32
314.25,3074.64
314.94,1433.54
315.64,733.85
316.34,462.95
317.04,364.41
317.73,332.29
318.43,326.59
319.13,332.64
319.82,347.26
320.52,373.06
321.22,411.64
321.92,456.65
322.61,492.54
323.31,500.30
324.01,466.68
324.70,394.48
325.40,305.14
326.10,225.22
326.80,168.85
327.49,134.84
328.19,115.44
328.89,109.51
329.58,103.58
330.28,95.32
330.98,89.01
331.68,83.74
332.37,79.15
333.07,75.15
333.77,70.89
334.46,65.33
335.16,58.51
335.86,51.45
336.56,45.35
337.25,40.65
337.95,36.86
338.65,33.21
339.35,29.54
340.04,26.57
340.74,24.78
341.44,23.32
342.13,21.37
342.83,19.70
343.53,19.22
344.23,19.15
344.92,18.28
345.62,17.56
346.32,16.83
347.01,15.91
347.71,16.32
348.41,17.72
349.11,18.35
349.80,16.92
350.50,14.48
351.20,13.24
351.89,14.49
352.59,18.72
353.29,25.88
353.99,34.91
354.68,43.97
355.38,51.45
356.08,56.58
356.77,59.84
357.47,63.20
358.17,67.68
358.87,70.37
359.56,66.50
360.26,54.77
360.96,39.40
361.65,26.11
362.35,21.53
363.05,16.95
363.75,10.71
364.44,6.79
365.14,5.52
365.84,5.69
366.54,5.79
367.23,6.09
367.93,7.10
368.63,8.01
369.32,8.20
370.02,8.10
370.72,8.19
371.42,8.73
372.11,9.89
372.81,11.18
373.51,11.65
374.20,11.45
374.90,11.55
375.60,12.43
376.30,14.22
376.99,16.89
377.69,19.65
378.39,21.07
379.08,20.78
379.78,20.48
380.48,18.22
381.18,14.99
381.87,12.05
382.57,10.93
383.27,11.85
383.96,13.73
384.66,16.11
385.36,19.58
386.06,24.40
386.75,30.12
387.45,36.55
388.15,43.24
388.85,48.59
389.54,51.94
390.24,55.60
390.94,62.09
391.63,70.20
392.33,75.01
393.03,71.84
393.73,60.92
394.42,47.47
395.12,36.73
395.82,33.41
396.51,30.09
397.21,26.77
397.91,26.60
398.61,29.48
399.30,34.06
400.00,38.93
401.00,43.71
401.72,48.36
402.45,52.97
403.17,59.10
403.89,69.40
404.61,86.75
405.34,116.52
406.06,167.97
406.78,247.36
407.50,346.93
408.23,441.40
408.95,496.83
409.67,487.04
410.39,410.32
411.12,294.58
411.84,181.16
412.56,98.65
413.28,51.57
414.01,40.69
414.73,29.81
415.45,21.54
416.18,18.71
416.90,17.64
417.62,17.46
418.34,18.03
419.07,18.90
419.79,19.41
420.51,19.13
421.23,18.70
421.96,19.22
422.68,20.32
423.40,20.26
424.12,18.75
424.85,17.40
425.57,17.21
426.29,17.86
427.01,18.82
427.74,19.88
428.46,20.92
429.18,21.56
429.91,21.33
430.63,19.93
431.35,18.84
432.07,17.75
432.80,16.27
433.52,16.59
434.24,18.03
434.96,19.77
435.69,22.04
436.41,25.42
437.13,30.86
437.85,39.87
438.58,53.50
439.30,71.52
440.02,91.54
440.74,107.82
441.47,113.17
442.19,104.55
442.91,86.07
443.64,65.87
444.36,51.30
445.08,45.76
445.80,47.78
446.53,53.22
447.25,58.43
447.97,60.92
448.69,60.16
449.42,59.40
450.14,55.19
450.86,51.52
451.58,49.93
452.31,48.97
453.03,47.10
453.75,44.78
454.47,43.41
455.20,43.47
455.92,43.76
456.64,42.67
457.36,40.44
458.09,38.38
458.81,36.31
459.53,33.53
460.26,31.30
460.98,31.28
461.70,32.95
462.42,34.71
463.15,36.13
463.87,38.40
464.59,43.14
465.31,50.76
466.04,55.27
466.76,59.78
467.48,69.19
468.20,81.21
468.93,100.01
469.65,127.05
470.37,158.05
471.09,184.23
471.82,195.70
472.54,186.03
473.26,156.95
473.99,118.67
474.71,83.69
475.43,59.16
476.15,44.87
476.88,37.50
477.60,34.83
478.32,35.32
479.04,36.95
479.77,38.43
480.49,39.76
481.21,41.14
481.93,42.64
482.66,45.08
483.38,47.32
484.10,49.56
484.82,56.02
485.55,62.88
486.27,67.85
486.99,69.37
487.72,67.46
488.44,63.77
489.16,61.68
489.88,64.91
490.61,75.21
491.33,90.85
492.05,106.73
492.77,118.41
493.50,127.13
494.22,139.25
494.94,161.85
495.66,197.99
496.39,241.72
497.11,278.27
497.83,291.71
498.55,273.29
499.28,226.36
500.00,165.71
501.00,137.67
502.01,109.63
503.02,69.80
504.03,47.30
505.04,36.51
506.05,31.29
507.06,28.75
508.07,28.40
509.08,29.25
510.09,29.36
511.10,27.80
512.11,25.48
513.12,24.06
514.13,24.32
515.14,25.59
516.15,26.93
517.16,28.03
518.17,29.08
519.18,30.28
520.19,31.06
521.20,30.85
522.21,30.12
523.22,29.69
524.23,29.94
525.24,30.50
526.26,31.05
527.27,32.86
528.28,35.17
529.29,38.40
530.30,42.89
531.31,48.30
532.32,53.68
533.33,57.76
534.34,59.81
535.35,60.13
536.36,59.18
537.37,57.47
538.38,55.81
539.39,54.30
540.40,52.42
541.41,50.89
542.42,51.47
543.43,54.81
544.44,59.98
545.45,66.25
546.46,73.79
547.47,82.93
548.48,94.49
549.49,102.62
550.50,110.76
551.51,136.26
552.52,178.58
553.53,246.94
554.54,345.38
555.55,464.42
556.56,579.82
557.57,660.49
558.58,680.98
559.59,634.30
560.60,538.12
561.61,426.45
562.62,331.69
563.63,271.02
564.64,244.79
565.65,242.89
566.66,252.19
567.67,262.99
568.68,274.09
569.69,293.94
570.70,338.47
571.71,431.15
572.72,604.28
573.73,746.71
574.74,889.15
575.76,1289.42
576.77,1755.94
577.78,2186.89
578.79,2458.01
579.80,2472.14
580.81,2211.22
581.82,1758.40
582.83,1260.95
583.84,851.20
584.85,584.71
585.86,438.34
586.87,355.78
587.88,293.32
588.89,234.10
589.90,178.12
590.91,130.41
591.92,95.19
592.93,73.04
593.94,61.28
594.95,56.74
595.96,57.21
596.97,61.45
597.98,64.94
598.99,68.43
600.00,76.32
601.00,82.62
602.18,85.25
603.36,83.22
604.54,76.35
605.71,65.69
606.89,54.66
608.07,47.57
609.25,46.37
610.43,50.78
611.61,60.07
612.79,72.48
613.96,84.75
615.14,93.65
616.32,96.92
617.50,93.75
618.68,86.47
619.86,80.28
621.04,79.36
622.21,84.33
623.39,93.12
624.57,103.12
625.75,107.66
626.93,112.20
628.11,117.54
629.29,115.51
630.46,104.69
631.64,87.49
632.82,68.04
634.00,49.75
635.18,34.96
636.36,24.91
637.54,19.26
638.71,16.35
639.89,14.60
641.07,13.53
642.25,13.22
643.43,13.44
644.61,13.57
645.79,13.42
646.96,13.53
648.14,14.02
649.32,14.17
650.50,13.75
651.68,13.29
652.86,13.14
654.04,13.32
655.21,13.50
656.39,14.58
657.57,16.18
658.75,17.51
659.93,17.85
661.11,17.60
662.29,17.98
663.46,18.99
664.64,19.54
665.82,19.67
667.00,20.77
668.18,24.04
669.36,29.73
670.54,38.05
671.71,50.28
672.89,67.54
674.07,88.51
675.25,110.02
676.43,128.43
677.61,139.65
678.79,139.73
679.96,127.33
681.14,105.31
682.32,92.28
683.50,79.25
684.68,54.69
685.86,35.59
687.04,23.37
688.21,16.47
689.39,12.49
690.57,10.64
691.75,10.50
692.93,10.66
694.11,10.17
695.29,9.58
696.46,9.50
697.64,9.35
698.82,8.53
700.00,7.89
701.00,8.47
702.98,9.71
704.96,10.42
706.94,10.40
708.92,10.21
710.90,10.23
712.88,10.24
714.86,10.04
716.84,9.96
718.82,9.89
720.80,9.80
722.78,9.57
724.76,9.64
726.74,10.36
728.72,10.90
730.70,10.28
732.68,8.90
734.66,7.86
736.64,7.49
738.62,7.61
740.60,8.10
742.58,8.63
744.56,8.73
746.54,8.62
748.52,9.08
750.50,9.79
752.48,9.51
754.46,8.24
756.44,7.10
758.42,6.57
760.40,6.38
762.38,6.37
764.36,6.51
766.34,6.65
768.32,7.17
770.30,7.46
772.28,7.20
774.26,6.80
776.24,6.89
778.22,7.71
780.20,8.89
782.18,9.56
784.16,9.18
786.14,8.45
788.12,8.56
790.10,9.29
792.08,9.46
794.06,9.15
796.04,9.05
798.02,8.80
800.00,8.14
801.00,7.69
803.36,7.72
805.71,8.03
808.07,8.53
810.43,8.44
812.79,7.62
815.14,6.79
817.50,4.47
819.86,3.08
822.21,3.04
824.57,4.17
826.93,5.70
829.29,6.16
831.64,5.25
834.00,4.23
836.36,3.99
838.71,4.40
841.07,5.39
843.43,6.82
845.79,8.12
848.14,8.89
850.50,8.95
852.86,8.32
855.21,7.71
857.57,8.02
859.93,8.96
862.29,9.67
864.64,10.01
867.00,10.41
869.36,10.55
871.71,10.70
874.07,10.14
876.43,8.35
878.79,5.83
881.14,3.89
883.50,3.50
885.86,4.08
888.21,4.23
890.57,3.81
892.93,3.78
895.29,4.20
897.64,4.06
900.00,3.22
901.00,2.60
904.67,2.57
908.33,2.87
912.00,3.61
915.67,4.93
919.33,6.28
923.00,6.85
926.67,6.40
930.33,5.40
934.00,4.56
937.67,4.44
941.33,4.32
945.00,4.40
948.67,4.22
952.33,4.08
956.00,5.03
959.67,6.86
963.33,7.89
967.00,7.15
970.67,5.59
974.33,4.86
978.00,5.35
981.67,5.92
985.33,5.62
989.00,5.07
992.67,5.26
996.33,6.01
1000.00,6.44
1001.00,6.02
1006.10,4.42
1011.21,1.94
1016.31,0.40
1021.41,1.39
1026.51,4.06
1031.62,5.03
1036.72,6.00
1041.82,5.84
1046.92,4.42
1052.03,3.58
1057.13,4.05
1062.23,4.93
1067.33,5.00
1072.44,4.22
1077.54,3.78
1082.64,4.62
1087.74,6.16
1092.85,6.74
1097.95,6.00
1103.05,5.22
1108.15,5.04
1113.26,4.64
1118.36,3.61
1123.46,2.96
1128.56,3.96
1133.67,6.41
1138.77,8.38
1143.87,8.34
1148.97,6.69
1154.08,5.85
1159.18,5.02
1164.28,4.26
1169.38,3.79
1174.49,2.95
1179.59,2.62
1184.69,3.65
1189.79,5.19
1194.90,6.04
1200.00,5.88
1201.00,4.76
1210.06,3.35
1219.12,2.84
1228.18,3.45
1237.24,4.30
1246.30,4.74
1255.36,4.93
1264.42,5.56
1273.48,7.16
1282.55,9.24
1291.61,10.75
1300.67,11.44
1309.73,12.07
1318.79,13.04
1327.85,13.37
1336.91,13.70
1345.97,13.41
1355.03,12.53
1364.09,11.59
1373.15,10.46
1382.21,8.81
1391.27,6.86
1400.33,5.21
1409.39,4.35
1418.45,4.22
1427.52,4.03
1436.58,3.30
1445.64,2.78
1454.70,3.42
1463.76,4.63
1472.82,4.98
1481.88,4.37
1490.94,3.89
1500.00,4.01
1501.00,4.23
1510.24,4.44
1519.48,5.08
1528.72,5.89
1537.96,6.28
1547.20,6.49
1556.44,6.69
1565.69,7.26
1574.93,7.17
1584.17,6.46
1593.41,6.15
1602.65,6.78
1611.89,8.38
1621.13,10.52
1630.37,11.46
1639.61,9.77
1648.85,6.82
1658.09,4.96
1667.33,4.65
1676.57,5.30
1685.81,6.41
1695.06,7.06
1704.30,6.42
1713.54,5.33
1722.78,5.26
1732.02,6.22
1741.26,7.47
1750.50,8.95
1759.74,10.53
1768.98,11.00
1778.22,11.47
1787.46,11.34
1796.70,10.73
1805.94,10.56
1815.19,11.07
1824.43,11.85
1833.67,12.33
1842.91,12.24
1852.15,12.21
1861.39,12.90
1870.63,13.82
1879.87,14.21
1889.11,14.34
1898.35,14.64
1907.59,14.83
1916.83,14.43
1926.07,13.50
1935.31,12.33
1944.56,10.82
1953.80,9.11
1963.04,8.10
1972.28,8.09
1981.52,8.14
1990.76,7.94
2000.00,7.74
2001.00,7.41
2018.22,7.45
2035.45,7.61
2052.67,7.74
2069.90,7.93
2087.12,8.62
2104.34,9.82
2121.57,10.68
2138.79,10.76
2156.02,9.99
2173.24,8.07
2190.47,5.65
2207.69,4.34
2224.91,4.94
2242.14,6.85
2259.36,8.81
2276.59,9.89
2293.81,10.16
2311.03,9.81
2328.26,8.86
2345.48,8.27
2362.71,8.79
2379.93,9.07
2397.16,9.34
2414.38,8.94
2431.60,8.28
2448.83,7.97
2466.05,7.82
2483.28,7.99
2500.50,9.04
2517.72,10.85
2534.95,12.29
2552.17,12.12
2569.40,10.39
2586.62,8.82
2603.84,8.84
2621.07,9.48
2638.29,8.93
2655.52,7.66
2672.74,7.50
2689.97,8.35
2707.19,8.91
2724.41,8.98
2741.64,9.06
2758.86,9.18
2776.09,9.03
2793.31,8.83
2810.53,8.64
2827.76,8.30
2844.98,8.26
2862.21,8.65
2879.43,9.19
2896.66,9.29
2913.88,9.06
2931.10,9.28
2948.33,10.29
2965.55,11.48
2982.78,11.90
3000.00,11.19
3001.00,9.93
3025.99,8.95
3050.98,8.52
3075.98,8.63
3100.97,9.25
3125.96,9.64
3150.95,9.02
3175.94,8.07
3200.93,8.12
3225.93,8.99
3250.92,9.62
3275.91,9.81
3300.90,10.01
3325.89,10.67
3350.88,11.43
3375.87,11.70
3400.87,11.03
3425.86,9.99
3450.85,10.07
3475.84,11.23
3500.83,11.74
3525.82,11.43
3550.82,11.65
3575.81,12.20
3600.80,11.68
3625.79,10.15
3650.78,9.30
3675.77,9.86
3700.77,10.60
3725.76,10.31
3750.75,9.36
3775.74,8.74
3800.73,8.84
3825.73,9.16
3850.72,9.07
3875.71,8.95
3900.70,8.84
3925.69,8.98
3950.68,9.27
3975.68,9.40
4000.67,9.53
4025.66,9.43
4050.65,8.66
4075.64,7.73
4100.63,7.44
4125.62,7.90
4150.62,8.71
4175.61,9.64
4200.60,10.86
4225.59,12.40
4250.58,13.65
4275.58,14.30
4300.57,14.68
4325.56,14.97
4350.55,14.83
4375.54,14.22
4400.53,14.00
4425.52,14.89
4450.52,16.02
4475.51,15.91
4500.50,15.79
4525.49,14.14
4550.48,12.11
4575.48,10.32
4600.47,9.28
4625.46,9.49
4650.45,10.37
4675.44,11.03
4700.43,11.52
4725.42,11.88
4750.42,11.95
4775.41,12.34
4800.40,13.55
4825.39,14.76
4850.38,15.06
4875.37,14.72
4900.37,14.30
4925.36,13.85
