Size (nt),Intensity
0.95,1.30
1.73,2.43
2.51,3.68
3.29,4.75
4.07,5.38
4.85,5.53
5.63,5.47
6.41,5.79
7.19,7.56
7.97,13.07
8.76,27.26
9.54,59.30
10.32,121.93
11.10,226.32
11.88,372.31
12.66,539.49
13.44,687.51
14.22,770.77
15.00,760.83
16.00,662.20
16.78,509.63
17.56,349.22
18.34,216.93
19.12,127.63
19.90,77.62
20.68,54.29
21.46,44.98
22.24,41.33
23.02,39.55
23.80,38.78
24.58,39.07
25.36,40.19
26.14,41.37
26.92,41.65
27.69,40.52
28.47,38.14
29.25,36.69
30.03,35.24
30.81,32.62
31.59,30.69
32.37,29.33
33.15,28.15
33.93,26.80
34.71,25.20
35.49,23.52
36.27,21.90
37.05,20.34
37.83,18.70
38.61,16.87
39.39,14.91
40.17,13.06
40.95,11.58
41.73,10.63
42.51,10.26
43.29,10.35
44.07,10.66
44.85,10.91
45.63,10.87
46.41,10.44
47.19,9.72
47.97,8.89
48.75,8.08
49.53,7.33
50.31,6.62
51.08,5.88
51.86,5.19
52.64,4.68
53.42,4.47
54.20,4.50
54.98,4.60
55.76,4.61
56.54,4.43
57.32,4.05
58.10,3.56
58.88,3.07
59.66,2.88
60.44,2.69
61.22,2.51
62.00,2.51
62.78,2.61
63.56,2.63
64.34,2.44
65.12,2.00
65.90,1.40
66.68,0.80
67.46,0.35
68.24,0.05
69.02,-0.13
69.80,-0.28
70.58,-0.46
71.36,-0.62
72.14,-0.67
72.92,-0.52
73.69,-0.10
74.47,0.58
75.25,1.39
76.03,2.12
76.81,2.56
77.59,2.61
78.37,2.32
79.15,1.89
79.93,1.48
80.71,1.24
81.49,1.17
82.27,1.22
83.05,1.31
83.83,1.40
84.61,1.48
85.39,1.59
86.17,1.74
86.95,1.96
87.73,2.27
88.51,2.70
89.29,3.21
90.07,3.44
90.85,3.68
91.63,3.98
92.41,4.05
93.19,3.91
93.97,3.62
94.75,3.25
95.53,2.92
96.31,2.76
97.08,2.76
97.86,2.78
98.64,2.68
99.42,2.47
100.20,2.28
100.98,2.27
101.76,2.51
102.54,3.01
103.32,3.82
104.10,4.96
104.88,6.34
105.66,7.69
106.44,8.71
107.22,9.21
108.00,9.23
108.78,8.97
109.56,8.65
110.34,8.41
111.12,8.26
111.90,8.13
112.68,7.94
113.46,7.61
114.24,7.16
115.02,6.69
115.80,6.33
116.58,6.23
117.36,6.47
118.14,7.05
118.92,7.81
119.69,8.57
120.47,8.85
121.25,9.13
122.03,9.41
122.81,9.42
123.59,9.29
124.37,9.18
125.15,9.21
125.93,9.43
126.71,9.83
127.49,10.36
128.27,10.94
129.05,11.42
129.83,11.63
130.61,11.42
131.39,10.81
132.17,9.95
132.95,9.09
133.73,8.44
134.51,8.03
135.29,7.84
136.07,7.78
136.85,7.75
137.63,7.66
138.41,7.46
139.19,7.18
139.97,6.97
140.75,6.90
141.53,6.93
142.31,6.94
143.08,6.80
143.86,6.49
144.64,6.14
145.42,6.00
146.20,6.38
146.98,7.56
147.76,9.69
148.54,12.78
149.32,17.06
150.10,20.28
150.88,23.50
151.66,34.19
152.44,52.29
153.22,80.74
154.00,120.29
154.78,167.59
155.56,215.10
156.34,253.51
157.12,275.65
157.90,279.51
158.68,268.48
159.46,248.72
160.24,225.72
161.02,202.21
161.80,178.34
162.58,153.36
163.36,127.31
164.14,101.51
164.92,77.90
165.69,58.07
166.47,42.55
167.25,30.99
168.03,22.62
168.81,16.63
169.59,12.41
170.37,9.48
171.15,7.58
171.93,6.58
172.71,6.56
173.49,7.63
174.27,9.80
175.05,12.79
175.83,15.94
176.61,18.40
177.39,19.41
178.17,18.71
178.95,16.61
179.73,13.81
180.51,12.45
181.29,11.09
182.07,8.99
182.85,7.74
183.63,7.38
184.41,7.78
185.19,8.69
185.97,9.78
186.75,10.69
187.53,11.14
188.31,11.05
189.08,10.51
189.86,9.65
190.64,8.61
191.42,7.57
192.20,6.70
192.98,6.12
193.76,5.79
194.54,5.54
195.32,5.21
196.10,4.77
196.88,4.35
197.66,4.09
198.44,4.05
199.22,4.10
200.00,4.07
201.00,3.86
203.35,3.53
205.71,3.26
208.06,3.29
210.42,3.82
212.77,4.86
215.13,6.15
217.48,7.20
219.83,7.57
222.19,7.13
224.54,6.13
226.90,5.04
229.25,4.28
231.61,4.15
233.96,4.03
236.31,4.26
238.67,4.77
241.02,5.31
243.38,5.67
245.73,5.73
248.09,5.52
250.44,5.11
252.80,4.62
255.15,4.11
257.50,3.67
259.86,3.38
262.21,3.29
264.57,3.36
266.92,3.54
269.28,3.78
271.63,4.10
273.98,4.56
276.34,5.15
278.69,5.74
281.05,6.20
283.40,6.43
285.76,6.53
288.11,6.69
290.46,7.13
292.82,8.01
295.17,9.44
297.53,11.44
299.88,13.93
302.24,16.73
304.59,19.60
306.94,22.23
309.30,24.36
311.65,25.71
314.01,26.16
316.36,25.68
318.72,24.43
321.07,22.68
323.43,21.77
325.78,20.85
328.13,19.39
330.49,18.64
332.84,18.63
335.20,19.13
337.55,19.78
339.91,20.37
342.26,20.82
344.61,21.14
346.97,21.24
349.32,20.90
351.68,19.91
354.03,18.23
356.39,16.06
358.74,13.83
361.09,11.98
363.45,10.82
365.80,10.30
368.16,10.18
370.51,10.13
372.87,9.94
375.22,9.58
377.57,9.23
379.93,9.13
382.28,9.41
384.64,10.01
386.99,10.68
389.35,11.16
391.70,11.27
394.06,10.95
396.41,10.22
398.76,9.25
401.12,8.28
403.47,7.58
405.83,7.27
408.18,7.32
410.54,7.59
412.89,7.98
415.24,8.24
417.60,8.49
419.95,9.13
422.31,9.90
424.66,10.77
427.02,11.69
429.37,12.61
431.72,13.48
434.08,14.36
436.43,15.28
438.79,16.22
441.14,17.01
443.50,17.40
445.85,17.22
448.20,16.54
450.56,15.71
452.91,15.12
455.27,14.99
457.62,15.18
459.98,15.35
462.33,15.19
464.69,14.68
467.04,13.98
469.39,13.27
471.75,12.68
474.10,12.26
476.46,12.07
478.81,12.08
481.17,12.20
483.52,12.29
485.87,12.21
488.23,11.95
490.58,11.62
492.94,11.34
495.29,11.20
497.65,11.20
500.00,11.32
501.00,11.51
505.42,11.60
509.83,11.70
514.25,11.75
518.66,11.53
523.08,11.04
527.50,10.42
531.91,9.90
536.33,9.78
540.74,10.24
545.16,11.28
549.58,12.78
553.99,14.48
558.41,16.06
562.82,17.18
567.24,17.59
571.65,17.38
576.07,17.03
580.49,17.24
584.90,18.51
589.32,21.00
593.73,24.50
598.15,28.52
602.57,32.36
606.98,35.13
611.40,36.02
615.81,34.64
620.23,31.19
624.65,26.44
629.06,21.34
633.48,16.72
637.89,13.06
642.31,10.52
646.73,9.08
651.14,8.54
655.56,8.61
659.97,8.93
664.39,9.21
668.81,9.36
673.22,9.43
677.64,9.46
682.05,9.49
686.47,9.58
690.88,9.65
695.30,9.68
699.72,9.75
704.13,9.94
708.55,10.28
712.96,10.68
717.38,11.02
721.80,11.22
726.21,11.33
730.63,11.49
735.04,11.88
739.46,12.53
743.88,13.33
748.29,14.09
752.71,14.62
757.12,14.82
761.54,14.84
765.96,15.00
770.37,15.60
774.79,16.67
779.20,17.89
783.62,18.81
788.04,19.14
792.45,18.85
796.87,18.12
801.28,17.21
805.70,16.36
810.12,15.70
814.53,15.26
818.95,15.03
823.36,15.04
827.78,15.36
832.19,16.07
836.61,17.22
841.03,18.73
845.44,20.44
849.86,21.25
854.27,22.06
858.69,23.27
863.11,23.88
867.52,23.90
871.94,23.48
876.35,22.82
880.77,22.04
885.19,21.19
889.60,20.28
894.02,19.34
898.43,18.42
902.85,17.66
907.27,17.26
911.68,17.34
916.10,17.90
920.51,18.78
924.93,19.78
929.35,20.71
933.76,21.46
938.18,22.04
942.59,22.52
947.01,23.01
951.42,23.67
955.84,24.67
960.26,26.18
964.67,28.20
969.09,30.54
973.50,32.93
977.92,35.18
982.34,37.29
986.75,39.36
991.17,41.37
995.58,43.20
1000.00,44.65
1001.00,45.53
1008.13,45.79
1015.26,45.47
1022.39,44.78
1029.51,44.42
1036.64,44.05
1043.77,43.66
1050.90,43.84
1058.03,44.59
1065.16,45.63
1072.29,46.53
1079.41,46.93
1086.54,46.65
1093.67,45.70
1100.80,44.21
1107.93,42.36
1115.06,40.33
1122.19,38.27
1129.31,36.28
1136.44,34.39
1143.57,32.63
1150.70,30.99
1157.83,29.49
1164.96,28.18
1172.09,27.11
1179.21,26.26
1186.34,25.54
1193.47,24.84
1200.60,24.13
1207.73,23.49
1214.86,23.09
1221.99,23.08
1229.11,23.53
1236.24,24.40
1243.37,25.56
1250.50,26.89
1257.63,28.30
1264.76,29.67
1271.89,30.86
1279.01,31.76
1286.14,32.34
1293.27,32.70
1300.40,32.81
1307.53,32.92
1314.66,33.07
1321.79,33.21
1328.91,33.51
1336.04,34.18
1343.17,35.31
1350.30,36.82
1357.43,38.61
1364.56,40.61
1371.69,42.85
1378.81,45.29
1385.94,47.81
1393.07,50.29
1400.20,52.79
1407.33,55.50
1414.46,58.58
1421.59,61.95
1428.71,65.32
1435.84,68.39
1442.97,71.10
1450.10,73.64
1457.23,76.14
1464.36,78.57
1471.49,80.72
1478.61,82.39
1485.74,83.47
1492.87,83.84
1500.00,83.42
1501.00,82.21
1509.91,80.40
1518.82,78.33
1527.73,76.36
1536.64,74.71
1545.55,73.40
1554.46,72.26
1563.37,71.07
1572.29,69.70
1581.20,68.24
1590.11,67.55
1599.02,66.86
1607.93,65.69
1616.84,64.78
1625.75,64.15
1634.66,63.85
1643.57,63.94
1652.48,64.42
1661.39,65.20
1670.30,66.18
1679.21,67.37
1688.12,68.94
1697.04,71.26
1705.95,74.79
1714.86,79.99
1723.77,87.30
1732.68,97.34
1741.59,111.36
1750.50,131.85
1759.41,163.35
1768.32,213.18
1777.23,292.06
1786.14,414.03
1795.05,595.11
1803.96,850.54
1812.87,1190.43
1821.79,1614.99
1830.70,2110.39
1839.61,2647.06
1848.52,3181.87
1857.43,3664.28
1866.34,4045.29
1875.25,4286.41
1884.16,4366.22
1893.07,4282.90
1901.98,4052.78
1910.89,3706.00
1919.80,3280.63
1928.71,2816.53
1937.62,2583.33
1946.54,2350.14
1955.45,1910.68
1964.36,1518.33
1973.27,1184.20
1982.18,911.62
1991.09,698.02
2000.00,536.98
2001.00,420.04
2015.48,338.19
2029.96,282.83
2044.43,246.39
2058.91,222.63
2073.39,206.66
2087.87,194.94
2102.35,184.99
2116.83,175.17
2131.30,164.50
2145.78,152.58
2160.26,139.64
2174.74,126.40
2189.22,113.80
2203.70,102.65
2218.17,93.41
2232.65,86.16
2247.13,80.69
2261.61,76.67
2276.09,73.80
2290.57,71.86
2305.04,70.65
2319.52,69.93
2334.00,69.56
2348.48,69.55
2362.96,70.14
2377.43,71.63
2391.91,74.31
2406.39,78.34
2420.87,83.61
2435.35,89.73
2449.83,92.92
2464.30,96.10
2478.78,102.08
2493.26,107.10
2507.74,110.74
2522.22,112.77
2536.70,113.24
2551.17,112.55
2565.65,111.32
2580.13,110.16
2594.61,109.49
2609.09,109.48
2623.57,110.20
2638.04,111.66
2652.52,113.91
2667.00,116.96
2681.48,120.83
2695.96,125.59
2710.43,131.36
2724.91,138.20
2739.39,146.03
2753.87,154.54
2768.35,163.34
2782.83,172.02
2797.30,180.19
2811.78,187.39
2826.26,193.03
2840.74,196.55
2855.22,197.65
2869.70,196.33
2884.17,192.79
2898.65,187.39
2913.13,180.65
2927.61,173.31
2942.09,166.23
2956.57,160.25
2971.04,156.06
2985.52,154.24
3000.00,155.21
3001.00,157.14
3023.20,159.07
3045.40,165.39
3067.60,173.05
3089.80,180.56
3112.00,186.45
3134.20,189.74
3156.40,190.09
3178.60,187.74
3200.80,183.28
3223.00,177.47
3245.20,171.14
3267.40,165.08
3289.60,160.11
3311.80,157.01
3334.00,156.53
3356.20,159.29
3378.40,165.70
3400.60,175.81
3422.80,189.05
3445.00,204.14
3467.20,219.09
3489.40,231.58
3511.60,239.59
3533.80,241.95
3556.00,238.69
3578.20,230.83
3600.40,220.05
3622.60,208.24
3644.80,197.27
3667.00,188.70
3689.20,183.61
3711.40,182.47
3733.60,185.12
3755.80,190.90
3778.00,198.97
3800.20,208.35
3822.40,218.09
3844.60,222.64
3866.80,227.19
3889.00,234.83
3911.20,240.46
3933.40,243.93
3955.60,245.47
3977.80,245.58
4000.00,244.91
4001.00,244.14
4028.38,243.80
4055.77,244.32
4083.15,246.07
4110.53,249.46
4137.92,254.80
4165.30,262.25
4192.69,271.85
4220.07,283.72
4247.45,298.28
4274.84,316.35
4302.22,338.96
4329.60,367.01
4356.99,401.06
4384.37,441.19
4411.75,486.77
4439.14,536.33
4466.52,587.54
4493.90,637.90
4521.29,686.27
4548.67,735.09
4576.05,793.26
4603.44,879.40
4630.82,1024.97
4658.21,1276.06
4685.59,1691.55
4712.97,2335.20
4740.36,3260.65
4767.74,4491.42
4795.12,6001.55
4822.51,7704.96
4849.89,8582.53
4877.27,9460.09
4904.66,11091.45
4932.04,12422.89
4959.42,13312.78
4986.81,13680.64
5014.19,13518.24
5041.58,12883.67
5068.96,11882.23
5096.34,10641.47
5123.73,9287.69
5151.11,7928.83
5178.49,6645.12
5205.88,5487.06
5233.26,4478.80
5260.64,3624.63
5288.03,2916.04
5315.41,2337.74
5342.79,1871.73
5370.18,1499.94
5397.56,1205.57
5424.95,973.86
5452.33,792.32
5479.71,650.70
5507.10,540.66
5534.48,455.56
5561.86,390.16
5589.25,340.35
5616.63,302.92
5644.01,275.28
5671.40,255.53
5698.78,242.40
5726.16,235.10
5753.55,233.13
5780.93,235.95
5808.31,243.03
5835.70,253.85
5863.08,267.97
5890.47,284.85
5917.85,294.32
5945.23,303.78
5972.62,323.75
6000.00,343.56
6027.03,361.99
6054.12,377.96
6081.22,390.60
6108.31,399.15
6135.41,403.02
6162.50,401.80
6189.59,395.32
6216.69,383.74
6243.78,367.52
6270.88,347.44
6297.97,324.55
6325.07,300.03
6352.16,275.01
6379.26,250.41
6406.35,226.79
6433.45,204.43
6460.54,183.48
6487.64,164.06
6514.73,146.29
6541.82,130.13
6568.92,115.47
6596.01,102.22
6623.11,90.40
6650.20,80.08
6677.30,71.26
6704.39,63.79
6731.49,57.54
6758.58,52.36
6785.68,48.11
6812.77,44.62
6839.86,41.76
6866.96,39.45
6894.05,37.67
6921.15,36.41
6948.24,35.52
6975.34,35.14
7002.43,34.76
7029.53,33.87
7056.62,32.78
7083.72,31.64
7110.81,30.72
7137.91,30.19
7165.00,30.04
7192.09,30.13
7219.19,30.39
7246.28,30.86
7273.38,31.60
7300.47,32.58
7327.57,33.69
7354.66,34.84
7381.76,36.00
7408.85,37.20
7435.95,38.49
7463.04,39.93
7490.14,41.57
7517.23,43.41
7544.32,45.45
7571.42,47.63
7598.51,49.86
7625.61,51.98
7652.70,53.78
7679.80,55.05
7706.89,55.66
7733.99,55.62
7761.08,55.05
7788.18,54.12
7815.27,52.92
7842.36,51.53
7869.46,49.98
7896.55,48.30
7923.65,46.51
7950.74,44.66
7977.84,42.82
8004.93,41.98
8032.03,41.14
8059.12,39.74
8086.22,38.65
8113.31,37.83
8140.41,37.14
8167.50,36.47
8194.59,35.76
8221.69,35.05
8248.78,34.45
8275.88,34.01
8302.97,33.76
8330.07,33.63
8357.16,33.48
8384.26,33.18
8411.35,32.68
8438.45,32.06
8465.54,31.47
8492.63,30.97
8519.73,30.54
8546.82,30.17
8573.92,29.92
8601.01,29.88
8628.11,30.09
8655.20,30.48
8682.30,30.91
8709.39,31.28
8736.49,31.57
8763.58,31.82
8790.68,32.08
8817.77,32.41
8844.87,32.85
8871.96,33.39
8899.05,34.01
8926.15,34.60
8953.24,35.09
8980.34,35.51
9007.43,35.98
9034.53,36.70
9061.62,37.21
9088.72,37.72
9115.81,38.96
9142.91,40.22
9170.00,41.33
9197.09,42.29
9224.19,43.12
9251.28,43.87
9278.38,44.56
9305.47,45.26
9332.57,46.08
9359.66,47.13
9386.76,48.45
9413.85,49.98
9440.95,51.64
9468.04,53.41
9495.13,55.34
9522.23,57.49
9549.32,59.79
9576.42,62.05
9603.51,64.10
9630.61,65.88
9657.70,67.49
9684.80,69.10
9711.89,70.78
9738.99,72.51
9766.08,74.20
9793.18,75.75
9820.27,77.09
9847.37,78.24
9874.46,79.28
9901.55,80.26
9928.65,81.21
9955.74,82.10
9982.84,82.88
10009.93,83.54
10037.03,84.23
10064.12,85.10
10091.22,86.22
10118.31,86.78
10145.41,87.35
10172.50,88.13
10199.59,88.35
10226.69,88.09
10253.78,87.65
10280.88,87.29
10307.97,87.10
10335.07,86.98
10362.16,86.77
10389.26,86.31
10416.35,85.49
10443.45,84.35
10470.54,82.96
10497.63,81.44
10524.73,79.84
10551.82,78.19
10578.92,76.52
10606.01,74.90
10633.11,73.39
10660.20,72.04
10687.30,70.88
10714.39,69.89
10741.49,68.94
10768.58,67.85
10795.68,66.48
10822.77,64.89
10849.87,63.20
10876.96,61.55
10904.05,59.95
10931.15,58.42
10958.24,56.95
10985.34,55.52
11012.43,53.97
11039.53,52.16
11066.62,50.13
11093.72,48.06
11120.81,46.14
11147.91,44.42
11175.00,43.65
11202.09,42.87
11229.19,41.39
11256.28,39.95
11283.38,38.56
11310.47,37.17
11337.57,35.77
11364.66,34.37
11391.76,32.98
11418.85,31.61
11445.95,30.24
11473.04,28.85
11500.13,27.50
11527.23,26.30
11554.32,25.37
11581.42,24.69
11608.51,24.11
11635.61,23.43
11662.70,22.54
11689.80,21.49
11716.89,20.38
11743.99,19.23
11771.08,18.02
11798.18,16.79
11825.27,15.67
11852.37,14.84
11879.46,14.37
11906.55,14.24
11933.65,14.37
11960.74,14.73
11987.84,15.27
12014.93,15.92
12042.03,16.48
12069.12,16.79
12096.22,16.77
12123.31,16.54
12150.41,16.33
12177.50,16.30
12204.59,16.45
12231.69,16.55
12258.78,16.64
12285.88,16.73
12312.97,16.63
12340.07,16.33
12367.16,15.82
12394.26,15.11
12421.35,14.31
12448.45,13.55
12475.54,12.92
12502.63,12.46
12529.73,12.17
12556.82,12.00
12583.92,11.91
12611.01,11.84
12638.11,11.75
12665.20,11.63
12692.30,11.42
12719.39,11.02
12746.49,10.42
12773.58,9.67
12800.68,9.00
12827.77,8.61
12854.87,8.57
12881.96,8.75
12909.05,8.89
12936.15,8.86
12963.24,8.65
12990.34,8.37
13017.43,8.13
13044.53,7.92
13071.62,7.70
13098.72,7.43
13125.81,7.12
13152.91,6.86
13180.00,6.71
13207.09,6.66
13234.19,6.60
13261.28,6.52
13288.38,6.43
13315.47,6.16
13342.57,5.91
13369.66,5.85
13396.76,5.99
13423.85,6.20
13450.95,6.29
13478.04,6.14
13505.13,5.79
13532.23,5.45
13559.32,5.32
13586.42,5.53
13613.51,6.01
13640.61,6.51
13667.70,6.77
13694.80,6.68
13721.89,6.38
13748.99,6.09
13776.08,5.90
13803.18,5.68
13830.27,5.24
13857.37,4.51
13884.46,3.69
13911.55,3.07
13938.65,2.89
13965.74,3.21
13992.84,3.84
14019.93,4.47
14047.03,4.85
14074.12,4.89
14101.22,4.67
14128.31,4.34
14155.41,4.03
14182.50,3.79
14209.59,3.61
14236.69,3.43
14263.78,3.22
14290.88,2.98
14317.97,2.86
14345.07,2.73
14372.16,2.53
14399.26,2.42
14426.35,2.47
14453.45,2.63
14480.54,2.77
14507.63,2.75
14534.73,2.52
14561.82,2.14
14588.92,1.75
14616.01,1.44
14643.11,1.17
14670.20,0.84
14697.30,0.38
14724.39,-0.17
14751.49,-0.69
14778.58,-1.04
14805.68,-1.11
14832.77,-0.94
14859.87,-0.67
14886.96,-0.49
14914.05,-0.50
14941.15,-0.67
14968.24,-0.87
14995.34,-1.00
15022.43,-1.00
15049.53,-0.85
15076.62,-0.61
15103.72,-0.35
15130.81,-0.16
15157.91,-0.07
15185.00,-0.05
15212.09,0.00
15239.19,1.23
15266.28,1.58
15293.38,1.97
15320.47,2.20
15347.57,2.16
15374.66,2.04
15401.76,1.92
15428.85,1.70
15455.95,1.69
15483.04,1.93
15510.13,2.34
15537.23,2.80
15564.32,3.28
15591.42,3.84
15618.51,4.59
15645.61,5.56
15672.70,6.66
15699.80,7.70
15726.89,8.47
15753.99,8.88
15781.08,8.98
15808.18,8.95
15835.27,8.96
15862.37,9.07
15889.46,9.24
15916.55,9.37
15943.65,9.38
15970.74,9.29
15997.84,9.19
16024.93,9.19
16052.03,9.35
16079.12,9.65
16106.22,10.02
16133.31,10.36
16160.41,10.63
16187.50,10.78
16214.59,10.78
16241.69,10.66
16268.78,10.48
16295.88,10.27
16322.97,9.95
16350.07,9.38
16377.16,8.55
16404.26,7.63
16431.35,7.29
16458.45,6.94
16485.54,6.68
16512.63,6.83
16539.73,7.17
16566.82,7.42
16593.92,7.40
16621.01,7.10
16648.11,6.64
16675.20,6.20
16702.30,5.85
16729.39,5.55
16756.49,5.17
16783.58,4.60
16810.68,3.86
16837.77,3.04
16864.87,2.33
