Size (nt),Intensity
0.95,4.59
1.73,5.18
2.51,5.98
3.29,6.84
4.07,7.58
4.85,8.09
5.63,8.47
6.41,9.10
7.19,10.91
7.97,16.02
8.76,28.92
9.54,57.62
10.32,113.07
11.10,204.68
11.88,331.92
12.66,476.69
13.44,603.79
14.22,673.78
15.00,662.58
16.00,574.89
16.78,441.53
17.56,302.76
18.34,189.62
19.12,114.47
19.90,73.46
20.68,55.11
21.46,48.35
22.24,46.16
23.02,45.57
23.80,45.91
24.58,47.06
25.36,48.63
26.14,49.82
26.92,49.92
27.69,48.72
28.47,46.64
29.25,44.40
30.03,42.63
30.81,42.07
31.59,41.52
32.37,40.86
33.15,40.27
33.93,39.43
34.71,38.29
35.49,36.94
36.27,35.56
37.05,34.35
37.83,33.39
38.61,32.65
39.39,31.95
40.17,31.13
40.95,30.18
41.73,29.30
42.51,28.73
43.29,28.56
44.07,28.68
44.85,28.85
45.63,28.83
46.41,28.47
47.19,27.71
47.97,26.60
48.75,25.29
49.53,24.03
50.31,23.02
51.08,22.35
51.86,21.92
52.64,21.53
53.42,21.02
54.20,20.40
54.98,19.78
55.76,19.27
56.54,18.93
57.32,18.75
58.10,18.71
58.88,18.76
59.66,18.74
60.44,18.47
61.22,17.85
62.00,16.97
62.78,16.53
63.56,16.08
64.34,15.45
65.12,15.22
65.90,15.31
66.68,15.50
67.46,15.57
68.24,15.49
69.02,15.39
69.80,15.42
70.58,15.67
71.36,16.07
72.14,16.54
72.92,16.98
73.69,17.32
74.47,17.55
75.25,17.66
76.03,17.67
76.81,17.56
77.59,17.29
78.37,16.90
79.15,16.44
79.93,16.00
80.71,15.60
81.49,15.29
82.27,15.10
83.05,15.11
83.83,15.30
84.61,15.55
85.39,15.70
86.17,15.66
86.95,15.42
87.73,15.12
88.51,14.93
89.29,14.96
90.07,15.18
90.85,15.51
91.63,15.85
92.41,16.18
93.19,16.50
93.97,16.81
94.75,17.08
95.53,17.19
96.31,17.30
97.08,17.46
97.86,17.58
98.64,17.69
99.42,17.85
100.20,18.31
100.98,19.66
101.76,22.81
102.54,28.92
103.32,39.12
104.10,53.68
104.88,71.16
105.66,88.00
106.44,99.54
107.22,102.30
108.00,95.91
108.78,83.41
109.56,69.41
110.34,57.71
111.12,49.93
111.90,45.80
112.68,44.31
113.46,44.68
114.24,46.45
115.02,49.17
115.80,52.26
116.58,55.15
117.36,57.47
118.14,59.27
118.92,60.83
119.69,62.49
120.47,64.51
121.25,67.06
122.03,70.31
122.81,74.42
123.59,79.45
124.37,85.17
125.15,91.01
125.93,96.18
126.71,100.00
127.49,101.01
128.27,102.03
129.05,102.07
129.83,100.15
130.61,96.43
131.39,91.21
132.17,85.04
132.95,78.59
133.73,72.56
134.51,67.45
135.29,63.46
136.07,60.43
136.85,58.06
137.63,56.18
138.41,54.89
139.19,54.51
139.97,55.18
140.75,56.56
141.53,57.98
142.31,58.81
143.08,58.87
143.86,58.50
144.64,58.60
145.42,60.62
146.20,66.84
146.98,80.40
147.76,104.93
148.54,143.34
149.32,195.98
150.10,259.07
150.88,324.73
151.66,383.43
152.44,428.05
153.22,456.66
154.00,471.57
154.78,475.01
155.56,465.51
156.34,438.76
157.12,392.56
157.90,331.31
158.68,265.79
159.46,208.54
160.24,188.29
161.02,168.04
161.80,145.69
162.58,136.39
163.36,131.91
164.14,124.89
164.92,111.66
165.69,92.98
166.47,72.48
167.25,54.18
168.03,40.59
168.81,32.25
169.59,28.31
170.37,27.50
171.15,28.73
171.93,31.63
172.71,36.93
173.49,46.55
174.27,63.07
175.05,88.31
175.83,121.73
176.61,159.10
177.39,192.84
178.17,214.21
178.95,216.90
179.73,199.83
180.51,167.67
181.29,128.63
182.07,91.09
182.85,60.80
183.63,39.88
184.41,27.42
185.19,20.95
185.97,17.73
186.75,15.69
187.53,13.71
188.31,11.60
189.08,9.67
189.86,8.37
190.64,7.95
191.42,8.32
192.20,8.75
192.98,9.18
193.76,10.26
194.54,11.42
195.32,12.74
196.10,14.38
196.88,16.34
197.66,18.47
198.44,20.46
199.22,21.98
200.00,22.84
201.00,22.95
203.35,22.35
205.71,21.12
208.06,19.37
210.42,17.23
212.77,14.95
215.13,12.91
217.48,11.53
219.83,11.01
222.19,11.26
224.54,11.90
226.90,12.50
229.25,12.78
231.61,12.71
233.96,12.54
236.31,12.62
238.67,13.17
241.02,14.10
243.38,15.06
245.73,15.70
248.09,15.86
250.44,15.71
252.80,15.55
255.15,15.56
257.50,15.72
259.86,15.86
262.21,15.89
264.57,15.85
266.92,15.89
269.28,16.05
271.63,16.12
273.98,16.19
276.34,16.05
278.69,15.49
281.05,14.62
283.40,13.82
285.76,13.56
288.11,14.20
290.46,15.93
292.82,18.86
295.17,23.13
297.53,28.82
299.88,35.67
302.24,42.91
304.59,49.30
306.94,53.58
309.30,54.92
311.65,53.29
314.01,49.44
316.36,44.63
318.72,40.17
321.07,37.09
323.43,35.88
325.78,36.44
328.13,38.09
330.49,39.83
332.84,40.66
335.20,40.02
337.55,38.05
339.91,35.55
342.26,33.51
344.61,32.72
346.97,33.50
349.32,35.81
351.68,39.43
354.03,43.97
356.39,48.74
358.74,52.67
361.09,54.54
363.45,53.51
365.80,49.59
368.16,43.76
370.51,40.62
372.87,37.49
375.22,32.07
377.57,28.20
379.93,25.89
382.28,24.75
384.64,24.30
386.99,24.11
389.35,23.86
391.70,23.35
394.06,22.58
396.41,21.69
398.76,20.90
401.12,20.42
403.47,20.37
405.83,20.80
408.18,21.85
410.54,23.82
412.89,26.99
415.24,31.44
417.60,36.82
419.95,42.27
422.31,46.69
424.66,49.15
427.02,49.29
429.37,47.51
431.72,44.57
434.08,41.11
436.43,37.41
438.79,33.62
441.14,30.13
443.50,27.60
445.85,26.70
448.20,27.74
450.56,30.56
452.91,34.53
455.27,38.71
457.62,42.03
459.98,43.57
462.33,42.97
464.69,40.56
467.04,38.90
469.39,37.23
471.75,33.95
474.10,31.41
476.46,29.85
478.81,29.15
481.17,29.09
483.52,29.47
485.87,30.17
488.23,31.16
490.58,32.39
492.94,33.73
495.29,35.02
497.65,36.15
500.00,37.26
501.00,38.68
505.42,40.68
509.83,43.20
514.25,45.77
518.66,47.68
523.08,48.29
527.50,47.37
531.91,45.22
536.33,42.68
540.74,40.72
545.16,40.26
549.58,41.98
553.99,46.33
558.41,53.36
562.82,62.36
567.24,71.78
571.65,79.53
576.07,83.76
580.49,83.52
584.90,79.03
589.32,71.46
593.73,62.38
598.15,53.27
602.57,45.17
606.98,38.58
611.40,33.61
615.81,30.15
620.23,29.06
624.65,27.97
629.06,26.77
633.48,26.23
637.89,26.00
642.31,25.86
646.73,25.66
651.14,25.48
655.56,25.47
659.97,25.77
664.39,26.34
668.81,26.98
673.22,27.48
677.64,27.81
682.05,28.13
686.47,28.74
690.88,29.80
695.30,31.32
699.72,33.09
704.13,34.81
708.55,36.21
712.96,37.19
717.38,37.82
721.80,38.34
726.21,39.00
730.63,39.93
735.04,41.15
739.46,42.55
743.88,43.95
748.29,45.13
752.71,45.91
757.12,46.24
761.54,46.25
765.96,46.25
770.37,46.52
774.79,47.16
779.20,47.95
783.62,48.46
788.04,48.44
792.45,47.96
796.87,47.41
801.28,47.25
805.70,47.09
810.12,47.09
814.53,47.28
818.95,47.47
823.36,47.66
827.78,47.92
832.19,48.32
836.61,48.91
841.03,49.70
845.44,50.74
849.86,52.07
854.27,53.73
858.69,55.72
863.11,57.98
867.52,60.41
871.94,62.74
876.35,64.61
880.77,65.79
885.19,66.23
889.60,65.95
894.02,65.01
898.43,63.50
902.85,61.71
907.27,60.15
911.68,59.29
916.10,59.33
920.51,59.94
924.93,60.48
929.35,60.19
933.76,58.59
938.18,55.63
942.59,51.73
947.01,47.65
951.42,44.17
955.84,41.88
960.26,41.07
964.67,41.76
969.09,43.68
973.50,46.34
977.92,49.15
982.34,51.61
986.75,52.55
991.17,53.48
995.58,54.81
1000.00,55.83
1001.00,56.92
1008.13,58.36
1015.26,60.28
1022.39,62.56
1029.51,65.02
1036.64,67.46
1043.77,69.74
1050.90,71.70
1058.03,73.23
1065.16,74.22
1072.29,74.70
1079.41,74.76
1086.54,74.57
1093.67,74.29
1100.80,74.02
1107.93,73.73
1115.06,73.38
1122.19,72.97
1129.31,72.57
1136.44,72.23
1143.57,71.91
1150.70,71.53
1157.83,71.04
1164.96,70.46
1172.09,69.86
1179.21,69.28
1186.34,68.65
1193.47,67.91
1200.60,67.08
1207.73,66.36
1214.86,66.08
1221.99,66.61
1229.11,68.27
1236.24,71.22
1243.37,75.45
1250.50,80.80
1257.63,87.05
1264.76,90.52
1271.89,93.99
1279.01,101.30
1286.14,108.50
1293.27,114.90
1300.40,119.83
1307.53,122.82
1314.66,123.84
1321.79,123.24
1328.91,121.56
1336.04,119.31
1343.17,116.89
1350.30,114.64
1357.43,112.87
1364.56,111.87
1371.69,111.81
1378.81,112.67
1385.94,114.38
1393.07,116.83
1400.20,119.89
1407.33,123.37
1414.46,127.01
1421.59,130.56
1428.71,133.88
1435.84,136.93
1442.97,139.72
1450.10,142.24
1457.23,144.59
1464.36,147.05
1471.49,150.12
1478.61,154.35
1485.74,160.14
1492.87,167.56
1500.00,176.42
1501.00,186.37
1509.91,196.94
1518.82,207.52
1527.73,217.25
1536.64,225.08
1545.55,230.12
1554.46,231.99
1563.37,231.08
1572.29,229.72
1581.20,228.36
1590.11,224.94
1599.02,221.71
1607.93,219.20
1616.84,217.59
1625.75,216.84
1634.66,216.69
1643.57,216.71
1652.48,216.34
1661.39,215.12
1670.30,212.85
1679.21,209.75
1688.12,206.35
1697.04,203.37
1705.95,201.48
1714.86,201.22
1723.77,203.19
1732.68,208.40
1741.59,218.72
1750.50,237.45
1759.41,269.61
1768.32,321.89
1777.23,402.38
1786.14,520.18
1795.05,684.51
1803.96,903.28
1812.87,1180.84
1821.79,1515.23
1830.70,1895.74
1839.61,2301.97
1848.52,2705.20
1857.43,3072.03
1866.34,3369.37
1875.25,3569.53
1884.16,3654.38
1893.07,3617.86
1901.98,3466.53
1910.89,3217.96
1919.80,2897.52
1928.71,2534.27
1937.62,2345.58
1946.54,2156.90
1955.45,1790.38
1964.36,1453.91
1973.27,1159.98
1982.18,914.54
1991.09,717.86
2000.00,565.89
2001.00,451.95
2015.48,368.44
2029.96,308.15
2044.43,265.10
2058.91,234.71
2073.39,213.78
2087.87,200.13
2102.35,192.28
2116.83,189.14
2131.30,189.84
2145.78,193.53
2160.26,199.25
2174.74,205.92
2189.22,212.59
2203.70,218.62
2218.17,223.72
2232.65,227.78
2247.13,230.68
2261.61,232.29
2276.09,232.62
2290.57,231.91
2305.04,230.55
2319.52,228.94
2334.00,227.34
2348.48,225.90
2362.96,224.75
2377.43,224.13
2391.91,224.32
2406.39,225.58
2420.87,228.06
2435.35,231.71
2449.83,236.32
2464.30,241.56
2478.78,244.31
2493.26,247.05
2507.74,252.30
2522.22,256.92
2536.70,260.72
2551.17,263.79
2565.65,266.32
2580.13,268.41
2594.61,270.03
2609.09,271.11
2623.57,271.73
2638.04,272.20
2652.52,272.90
2667.00,274.16
2681.48,276.17
2695.96,279.00
2710.43,282.72
2724.91,287.35
2739.39,292.85
2753.87,299.00
2768.35,305.42
2782.83,311.48
2797.30,316.54
2811.78,320.05
2826.26,321.73
2840.74,321.60
2855.22,319.76
2869.70,316.25
2884.17,311.11
2898.65,304.55
2913.13,297.17
2927.61,289.86
2942.09,283.61
2956.57,279.40
2971.04,278.11
2985.52,280.58
3000.00,287.32
3001.00,298.35
3023.20,312.97
3045.40,329.98
3067.60,347.78
3089.80,364.58
3112.00,371.58
3134.20,378.58
3156.40,388.38
3178.60,393.44
3200.80,394.32
3223.00,392.49
3245.20,389.78
3267.40,387.99
3289.60,388.64
3311.80,392.97
3334.00,401.87
3356.20,415.76
3378.40,434.40
3400.60,456.79
3422.80,481.17
3445.00,505.19
3467.20,526.28
3489.40,542.18
3511.60,551.45
3533.80,553.66
3556.00,549.33
3578.20,539.65
3600.40,526.18
3622.60,510.62
3644.80,494.78
3667.00,480.41
3689.20,469.12
3711.40,462.14
3733.60,460.26
3755.80,463.72
3778.00,472.26
3800.20,485.24
3822.40,501.97
3844.60,521.96
3866.80,545.24
3889.00,572.42
3911.20,604.48
3933.40,642.32
3955.60,686.30
3977.80,735.85
4000.00,789.35
4001.00,816.74
4028.38,844.13
4055.77,896.74
4083.15,943.41
4110.53,980.95
4137.92,1007.71
4165.30,1024.58
4192.69,1035.76
4220.07,1049.37
4247.45,1078.04
4274.84,1139.31
4302.22,1255.41
4329.60,1451.65
4356.99,1752.76
4384.37,2177.35
4411.75,2731.43
4439.14,3402.89
4466.52,4158.84
4493.90,4947.19
4521.29,5702.75
4548.67,6356.72
4576.05,6847.61
4603.44,7131.23
4630.82,7187.30
4658.21,7021.16
4685.59,6660.67
4712.97,6149.50
4740.36,5538.92
4767.74,4879.83
4795.12,4216.77
4822.51,3584.30
4849.89,3005.83
4877.27,2494.39
4904.66,2054.40
4932.04,1684.08
4959.42,1377.71
4986.81,1127.48
5014.19,924.95
5041.58,761.91
5068.96,631.00
5096.34,525.94
5123.73,441.59
5151.11,407.73
5178.49,373.86
5205.88,319.53
5233.26,276.06
5260.64,241.44
5288.03,213.97
5315.41,192.19
5342.79,174.91
5370.18,161.24
5397.56,150.60
5424.95,142.71
5452.33,137.38
5479.71,134.35
5507.10,133.14
5534.48,133.05
5561.86,133.37
5589.25,133.60
5616.63,133.57
5644.01,133.26
5671.40,132.62
5698.78,131.43
5726.16,129.47
5753.55,126.64
5780.93,123.04
5808.31,118.96
5835.70,114.71
5863.08,110.54
5890.47,106.63
5917.85,103.03
5945.23,99.72
5972.62,96.63
6000.00,93.69
6027.03,90.84
6054.12,88.04
6081.22,85.29
6108.31,82.54
6135.41,79.81
6162.50,77.15
6189.59,74.70
6216.69,72.61
6243.78,70.96
6270.88,70.35
6297.97,69.73
6325.07,68.75
6352.16,67.78
6379.26,66.70
6406.35,65.52
6433.45,64.37
6460.54,63.38
6487.64,62.55
6514.73,61.81
6541.82,61.03
6568.92,60.18
6596.01,59.23
6623.11,58.19
6650.20,57.03
6677.30,55.79
6704.39,54.62
6731.49,53.76
6758.58,53.35
6785.68,53.37
6812.77,53.66
6839.86,54.01
6866.96,54.27
6894.05,54.39
6921.15,54.39
6948.24,54.36
6975.34,54.37
7002.43,54.54
7029.53,54.95
7056.62,55.62
7083.72,56.53
7110.81,57.59
7137.91,58.66
7165.00,59.63
7192.09,60.50
7219.19,61.41
7246.28,62.43
7273.38,63.48
7300.47,64.31
7327.57,64.74
7354.66,64.68
7381.76,64.16
7408.85,63.70
7435.95,63.23
7463.04,61.95
7490.14,60.44
7517.23,58.93
7544.32,57.58
7571.42,56.44
7598.51,55.38
7625.61,54.23
7652.70,52.93
7679.80,51.58
7706.89,50.42
7733.99,49.64
7761.08,49.24
7788.18,49.06
7815.27,48.89
7842.36,48.56
7869.46,47.99
7896.55,47.14
7923.65,45.97
7950.74,44.59
7977.84,43.21
8004.93,42.16
8032.03,41.63
8059.12,41.61
8086.22,41.86
8113.31,42.13
8140.41,42.26
8167.50,42.27
8194.59,42.23
8221.69,42.17
8248.78,42.10
8275.88,42.05
8302.97,42.08
8330.07,42.16
8357.16,42.15
8384.26,41.91
8411.35,41.41
8438.45,40.81
8465.54,40.32
8492.63,40.07
8519.73,40.05
8546.82,40.02
8573.92,40.09
8601.01,40.17
8628.11,40.28
8655.20,40.47
8682.30,40.78
8709.39,41.14
8736.49,41.37
8763.58,41.31
8790.68,40.95
8817.77,40.47
8844.87,40.15
8871.96,40.21
8899.05,40.73
8926.15,41.61
8953.24,42.71
8980.34,43.91
9007.43,45.17
9034.53,46.50
9061.62,47.82
9088.72,49.00
9115.81,49.88
9142.91,50.36
9170.00,50.48
9197.09,50.41
9224.19,50.30
9251.28,50.17
9278.38,49.94
9305.47,49.59
9332.57,49.23
9359.66,49.00
9386.76,48.98
9413.85,49.17
9440.95,49.50
9468.04,49.78
9495.13,49.82
9522.23,49.47
9549.32,48.80
9576.42,48.00
9603.51,47.30
9630.61,46.87
9657.70,46.80
9684.80,46.73
9711.89,46.75
9738.99,46.74
9766.08,46.60
9793.18,46.35
9820.27,46.09
9847.37,45.82
9874.46,45.51
9901.55,45.09
9928.65,44.53
9955.74,43.87
9982.84,43.20
10009.93,42.63
10037.03,42.29
10064.12,42.24
10091.22,42.45
10118.31,42.73
10145.41,42.84
10172.50,42.62
10199.59,42.05
10226.69,41.27
10253.78,40.53
10280.88,39.98
10307.97,39.69
10335.07,39.56
10362.16,39.40
10389.26,39.00
10416.35,38.19
10443.45,36.84
10470.54,34.98
10497.63,32.85
10524.73,30.81
10551.82,29.15
10578.92,27.93
10606.01,27.06
10633.11,26.38
10660.20,25.80
10687.30,25.31
10714.39,24.92
10741.49,24.60
10768.58,24.46
10795.68,24.32
10822.77,24.02
10849.87,23.64
10876.96,23.02
10904.05,22.06
10931.15,20.75
10958.24,19.29
10985.34,18.00
11012.43,17.14
11039.53,16.79
11066.62,16.86
11093.72,17.11
11120.81,17.30
11147.91,17.31
11175.00,17.18
11202.09,17.06
11229.19,17.05
11256.28,17.08
11283.38,16.99
11310.47,16.68
11337.57,16.16
11364.66,15.57
11391.76,15.03
11418.85,14.58
11445.95,14.18
11473.04,13.80
11500.13,13.44
11527.23,13.11
11554.32,12.81
11581.42,12.50
11608.51,12.22
11635.61,12.06
11662.70,12.07
11689.80,12.23
11716.89,12.41
11743.99,12.55
11771.08,12.71
11798.18,12.97
11825.27,13.36
11852.37,13.80
11879.46,13.97
11906.55,14.15
11933.65,14.26
11960.74,14.02
11987.84,13.39
12014.93,12.49
12042.03,11.61
12069.12,11.08
12096.22,11.02
12123.31,11.34
12150.41,11.79
12177.50,12.15
12204.59,12.32
12231.69,12.23
12258.78,11.82
12285.88,11.11
12312.97,10.28
12340.07,9.59
12367.16,9.23
12394.26,9.17
12421.35,9.22
12448.45,9.16
12475.54,8.87
12502.63,8.40
12529.73,7.90
12556.82,7.63
12583.92,7.72
12611.01,8.08
12638.11,8.34
12665.20,8.21
12692.30,7.66
12719.39,6.92
12746.49,6.25
12773.58,5.71
12800.68,5.27
12827.77,4.88
12854.87,4.61
12881.96,4.54
12909.05,4.66
12936.15,4.91
12963.24,5.16
12990.34,5.35
13017.43,5.40
13044.53,5.45
13071.62,5.46
13098.72,5.40
13125.81,5.28
13152.91,5.06
13180.00,4.67
13207.09,4.09
13234.19,3.43
13261.28,2.90
13288.38,2.72
13315.47,2.91
13342.57,3.34
13369.66,3.78
13396.76,4.04
13423.85,4.02
13450.95,3.65
13478.04,2.95
13505.13,2.01
13532.23,1.02
13559.32,0.21
13586.42,-0.23
13613.51,-0.28
13640.61,-0.11
13667.70,0.06
13694.80,0.14
13721.89,0.14
13748.99,0.17
13776.08,0.24
13803.18,0.30
13830.27,0.20
13857.37,-0.16
13884.46,-0.71
13911.55,-1.28
13938.65,-1.63
13965.74,-1.62
13992.84,-1.19
14019.93,-0.46
14047.03,0.31
14074.12,0.82
14101.22,0.86
14128.31,0.66
14155.41,0.46
14182.50,-0.13
14209.59,-0.63
14236.69,-0.92
14263.78,-1.09
14290.88,-1.29
14317.97,-1.59
14345.07,-1.99
14372.16,-2.43
14399.26,-2.86
14426.35,-3.26
14453.45,-3.63
14480.54,-4.02
14507.63,-4.40
14534.73,-4.68
14561.82,-4.79
14588.92,-4.70
14616.01,-4.46
14643.11,-4.11
14670.20,-3.71
14697.30,-3.35
14724.39,-3.15
14751.49,-3.10
14778.58,-3.06
14805.68,-2.85
14832.77,-2.41
14859.87,-1.83
14886.96,-1.30
14914.05,-0.94
14941.15,-0.76
14968.24,-0.72
14995.34,-0.74
15022.43,-0.74
15049.53,-0.62
15076.62,-0.35
15103.72,0.00
15130.81,5.04
15157.91,5.33
15185.00,5.52
15212.09,5.59
15239.19,5.51
15266.28,5.43
15293.38,5.34
15320.47,5.23
15347.57,5.34
15374.66,5.70
15401.76,6.16
15428.85,6.47
15455.95,6.47
15483.04,6.16
15510.13,5.69
15537.23,5.23
15564.32,4.85
15591.42,4.61
15618.51,4.49
15645.61,4.49
15672.70,4.55
15699.80,4.62
15726.89,4.66
15753.99,4.68
15781.08,4.74
15808.18,4.85
15835.27,4.96
15862.37,4.95
15889.46,4.74
15916.55,4.40
15943.65,4.05
15970.74,3.78
15997.84,3.64
16024.93,3.64
16052.03,3.76
16079.12,3.89
16106.22,3.92
16133.31,3.80
16160.41,3.62
16187.50,3.45
16214.59,3.32
16241.69,3.17
16268.78,2.94
16295.88,2.65
16322.97,2.38
16350.07,2.23
16377.16,2.23
16404.26,2.24
16431.35,2.32
16458.45,2.40
16485.54,2.43
16512.63,2.42
16539.73,2.43
16566.82,2.47
16593.92,2.49
16621.01,2.37
16648.11,1.98
16675.20,1.36
16702.30,0.67
16729.39,0.17
16756.49,0.00
16783.58,0.12
16810.68,0.40
16837.77,0.63
16864.87,0.63
