Size (nt),Intensity
0.95,1.78
1.73,1.85
2.51,1.87
3.29,1.86
4.07,1.81
4.85,1.82
5.63,2.20
6.41,3.48
7.19,6.54
7.97,13.31
8.76,28.38
9.54,60.58
10.32,122.51
11.10,225.44
11.88,369.73
12.66,535.67
13.44,683.63
14.22,768.17
15.00,760.39
16.00,663.90
16.78,512.68
17.56,352.60
18.34,219.86
19.12,129.74
19.90,78.86
20.68,54.75
21.46,44.86
22.24,40.86
23.02,38.95
23.80,38.12
24.58,38.32
25.36,39.23
26.14,40.04
26.92,39.93
27.69,38.57
28.47,36.36
29.25,33.98
30.03,32.95
30.81,31.92
31.59,30.32
32.37,29.04
33.15,27.89
33.93,26.74
34.71,25.49
35.49,24.08
36.27,22.51
37.05,20.85
37.83,19.19
38.61,17.59
39.39,16.13
40.17,14.87
40.95,13.93
41.73,13.31
42.51,12.96
43.29,12.72
44.07,12.42
44.85,11.90
45.63,11.00
46.41,9.74
47.19,8.27
47.97,6.88
48.75,5.81
49.53,5.16
50.31,4.89
51.08,4.88
51.86,4.94
52.64,4.95
53.42,4.86
54.20,4.67
54.98,4.44
55.76,4.20
56.54,3.97
57.32,3.78
58.10,3.64
58.88,3.54
59.66,3.46
60.44,3.40
61.22,3.40
62.00,3.39
62.78,3.47
63.56,3.58
64.34,3.63
65.12,3.53
65.90,3.30
66.68,3.02
67.46,2.78
68.24,2.65
69.02,2.62
69.80,2.66
70.58,2.71
71.36,2.74
72.14,2.74
72.92,2.70
73.69,2.70
74.47,2.75
75.25,2.84
76.03,2.91
76.81,2.89
77.59,2.76
78.37,2.55
79.15,2.36
79.93,2.22
80.71,2.17
81.49,2.21
82.27,2.31
83.05,2.40
83.83,2.36
84.61,2.14
85.39,1.78
86.17,1.39
86.95,1.04
87.73,0.76
88.51,0.48
89.29,0.23
90.07,0.09
90.85,0.21
91.63,0.66
92.41,0.98
93.19,1.31
93.97,1.96
94.75,2.41
95.53,2.67
96.31,2.85
97.08,2.99
97.86,3.00
98.64,2.81
99.42,2.44
100.20,2.09
100.98,1.94
101.76,2.10
102.54,2.57
103.32,3.33
104.10,4.33
104.88,5.53
105.66,6.76
106.44,7.76
107.22,8.31
108.00,8.35
108.78,8.02
109.56,7.52
110.34,6.99
111.12,6.43
111.90,5.84
112.68,5.29
113.46,4.90
114.24,4.80
115.02,5.02
115.80,5.56
116.58,6.25
117.36,6.89
118.14,7.31
118.92,7.42
119.69,7.32
120.47,7.19
121.25,7.23
122.03,7.51
122.81,7.94
123.59,8.15
124.37,8.36
125.15,8.63
125.93,8.76
126.71,8.84
127.49,8.95
128.27,9.06
129.05,9.08
129.83,8.93
130.61,8.57
131.39,8.03
132.17,7.42
132.95,6.88
133.73,6.53
134.51,6.43
135.29,6.52
136.07,6.66
136.85,6.69
137.63,6.59
138.41,6.48
139.19,6.56
139.97,6.87
140.75,7.32
141.53,7.66
142.31,7.77
143.08,7.63
143.86,7.36
144.64,7.10
145.42,6.98
146.20,7.13
146.98,7.76
147.76,9.01
148.54,11.00
149.32,13.91
150.10,18.37
150.88,25.85
151.66,38.72
152.44,59.66
153.22,90.23
154.00,129.12
154.78,150.19
155.56,171.26
156.34,208.96
157.12,234.88
157.90,245.16
158.68,240.79
159.46,226.26
160.24,206.76
161.02,185.77
161.80,164.43
162.58,142.54
163.36,119.96
164.14,97.38
164.92,76.09
165.69,57.40
166.47,42.15
167.25,30.62
168.03,22.55
168.81,17.39
169.59,14.45
170.37,13.00
171.15,12.34
171.93,11.94
172.71,11.55
173.49,11.25
174.27,11.37
175.05,12.18
175.83,13.65
176.61,15.26
177.39,16.25
178.17,15.97
178.95,14.36
179.73,11.93
180.51,9.41
181.29,7.34
182.07,6.03
182.85,5.67
183.63,6.35
184.41,7.93
185.19,9.90
185.97,10.73
186.75,11.57
187.53,12.37
188.31,12.12
189.08,11.00
189.86,9.40
190.64,7.73
191.42,6.28
192.20,5.19
192.98,4.50
193.76,4.22
194.54,4.33
195.32,4.75
196.10,5.37
196.88,6.01
197.66,6.46
198.44,6.51
199.22,6.12
200.00,5.42
201.00,4.76
203.35,4.42
205.71,4.44
208.06,4.56
210.42,4.50
212.77,4.24
215.13,3.99
217.48,3.99
219.83,4.27
222.19,4.64
224.54,4.84
226.90,4.80
229.25,4.62
231.61,4.49
233.96,4.48
236.31,4.53
238.67,4.58
241.02,4.67
243.38,4.86
245.73,5.14
248.09,5.38
250.44,5.40
252.80,5.43
255.15,5.17
257.50,4.64
259.86,4.06
262.21,3.72
264.57,3.85
266.92,4.42
269.28,5.10
271.63,5.49
273.98,5.43
276.34,5.12
278.69,4.92
281.05,5.07
283.40,5.51
285.76,6.02
288.11,6.40
290.46,6.75
292.82,7.34
295.17,8.48
297.53,10.22
299.88,12.36
302.24,14.67
304.59,17.08
306.94,19.62
309.30,22.23
311.65,24.61
314.01,26.26
316.36,26.79
318.72,26.11
321.07,24.50
323.43,22.46
325.78,20.47
328.13,18.86
330.49,17.73
332.84,17.04
335.20,16.72
337.55,16.68
339.91,16.85
342.26,17.11
344.61,17.30
346.97,17.29
349.32,17.28
351.68,16.96
354.03,16.39
356.39,15.73
358.74,15.09
361.09,14.47
363.45,13.79
365.80,13.00
368.16,12.11
370.51,11.19
372.87,10.28
375.22,9.45
377.57,8.83
379.93,8.58
382.28,8.79
384.64,9.41
386.99,10.18
389.35,10.73
391.70,10.73
394.06,10.06
396.41,8.88
398.76,7.53
401.12,6.33
403.47,5.48
405.83,5.06
408.18,5.00
410.54,5.19
412.89,5.55
415.24,6.05
417.60,6.67
419.95,7.37
422.31,8.13
424.66,8.96
427.02,9.96
429.37,11.16
431.72,12.47
434.08,13.73
436.43,14.74
438.79,15.38
441.14,15.51
443.50,15.63
445.85,15.57
448.20,15.34
450.56,15.07
452.91,14.86
455.27,14.76
457.62,14.88
459.98,15.31
462.33,15.96
464.69,16.57
467.04,16.76
469.39,16.31
471.75,15.29
474.10,14.06
476.46,13.00
478.81,12.34
481.17,11.94
483.52,11.59
485.87,11.19
488.23,10.88
490.58,10.85
492.94,11.09
495.29,11.36
497.65,11.34
500.00,10.91
501.00,10.30
505.42,9.85
509.83,9.73
514.25,9.82
518.66,9.90
523.08,9.96
527.50,10.10
531.91,10.46
536.33,10.98
540.74,11.57
545.16,12.23
549.58,13.10
553.99,14.25
558.41,15.50
562.82,15.97
567.24,16.44
571.65,16.72
576.07,16.38
580.49,15.82
584.90,15.67
589.32,16.43
593.73,18.37
598.15,21.38
602.57,25.00
606.98,28.43
611.40,30.71
615.81,31.04
620.23,29.22
624.65,25.70
629.06,21.42
633.48,17.40
637.89,14.34
642.31,12.50
646.73,11.80
651.14,11.92
655.56,12.43
659.97,12.91
664.39,13.09
668.81,12.85
673.22,12.25
677.64,11.45
682.05,10.67
686.47,10.18
690.88,10.22
695.30,10.81
699.72,11.70
704.13,12.43
708.55,12.65
712.96,12.27
717.38,11.48
721.80,10.64
726.21,10.07
730.63,9.97
735.04,10.34
739.46,10.70
743.88,11.06
748.29,11.97
752.71,13.00
757.12,14.10
761.54,15.11
765.96,15.92
770.37,16.50
774.79,16.98
779.20,17.50
783.62,18.08
788.04,18.53
792.45,18.67
796.87,18.39
801.28,17.82
805.70,17.21
810.12,16.83
814.53,16.84
818.95,17.21
823.36,17.77
827.78,18.32
832.19,18.75
836.61,19.12
841.03,19.56
845.44,20.19
849.86,21.01
854.27,21.98
858.69,23.08
863.11,24.22
867.52,25.32
871.94,26.20
876.35,26.63
880.77,26.43
885.19,25.56
889.60,24.19
894.02,22.74
898.43,21.59
902.85,20.98
907.27,20.83
911.68,20.92
916.10,21.00
920.51,21.07
924.93,21.27
929.35,21.63
933.76,22.28
938.18,23.21
942.59,24.33
947.01,25.47
951.42,26.54
955.84,27.47
960.26,28.30
964.67,29.12
969.09,30.03
973.50,31.11
977.92,32.45
982.34,34.18
986.75,36.37
991.17,38.99
995.58,41.76
1000.00,44.34
1001.00,46.47
1008.13,48.03
1015.26,48.97
1022.39,49.23
1029.51,48.80
1036.64,47.84
1043.77,46.75
1050.90,46.04
1058.03,45.96
1065.16,46.35
1072.29,46.69
1079.41,46.48
1086.54,45.52
1093.67,43.96
1100.80,42.10
1107.93,40.16
1115.06,38.24
1122.19,36.34
1129.31,34.40
1136.44,32.36
1143.57,31.31
1150.70,30.25
1157.83,28.25
1164.96,26.63
1172.09,25.54
1179.21,24.89
1186.34,24.45
1193.47,24.10
1200.60,23.95
1207.73,24.19
1214.86,24.90
1221.99,25.94
1229.11,27.02
1236.24,27.90
1243.37,28.44
1250.50,28.68
1257.63,28.81
1264.76,29.14
1271.89,29.89
1279.01,31.13
1286.14,32.74
1293.27,34.46
1300.40,35.98
1307.53,37.06
1314.66,37.59
1321.79,37.71
1328.91,37.68
1336.04,37.83
1343.17,38.33
1350.30,39.26
1357.43,40.74
1364.56,42.91
1371.69,45.86
1378.81,49.37
1385.94,53.03
1393.07,56.36
1400.20,59.14
1407.33,61.46
1414.46,63.57
1421.59,65.73
1428.71,66.86
1435.84,67.99
1442.97,70.26
1450.10,72.44
1457.23,74.45
1464.36,76.24
1471.49,77.69
1478.61,78.62
1485.74,78.95
1492.87,78.76
1500.00,78.19
1501.00,77.42
1509.91,76.63
1518.82,75.96
1527.73,75.46
1536.64,74.93
1545.55,74.14
1554.46,72.90
1563.37,71.26
1572.29,69.44
1581.20,67.68
1590.11,66.14
1599.02,64.88
1607.93,63.95
1616.84,63.40
1625.75,63.26
1634.66,63.43
1643.57,63.75
1652.48,64.18
1661.39,64.79
1670.30,65.77
1679.21,67.22
1688.12,69.19
1697.04,71.71
1705.95,74.99
1714.86,79.43
1723.77,85.58
1732.68,94.20
1741.59,106.43
1750.50,124.33
1759.41,138.01
1768.32,151.69
1777.23,194.84
1786.14,263.11
1795.05,368.64
1803.96,525.29
1812.87,746.37
1821.79,1041.02
1830.70,1409.65
1839.61,1839.96
1848.52,2305.59
1857.43,2768.48
1866.34,3184.77
1875.25,3512.52
1884.16,3719.32
1893.07,3787.68
1901.98,3717.06
1910.89,3522.27
1919.80,3229.23
1928.71,2869.77
1937.62,2476.58
1946.54,2079.44
1955.45,1702.66
1964.36,1363.74
1973.27,1072.93
1982.18,833.89
1991.09,645.10
2000.00,501.55
2001.00,396.39
2015.48,322.02
2029.96,271.11
2044.43,237.13
2058.91,214.68
2073.39,199.48
2087.87,188.23
2102.35,178.45
2116.83,168.50
2131.30,157.58
2145.78,145.75
2160.26,133.70
2174.74,127.98
2189.22,122.26
2203.70,112.05
2218.17,103.29
2232.65,95.94
2247.13,89.92
2261.61,85.20
2276.09,81.73
2290.57,79.30
2305.04,77.57
2319.52,76.20
2334.00,75.00
2348.48,74.07
2362.96,73.74
2377.43,74.52
2391.91,76.91
2406.39,81.06
2420.87,86.61
2435.35,92.82
2449.83,98.88
2464.30,104.23
2478.78,108.57
2493.26,111.77
2507.74,113.82
2522.22,114.75
2536.70,114.72
2551.17,113.98
2565.65,112.87
2580.13,111.72
2594.61,110.81
2609.09,110.34
2623.57,110.51
2638.04,111.52
2652.52,113.53
2667.00,116.62
2681.48,120.75
2695.96,125.84
2710.43,131.81
2724.91,138.57
2739.39,146.07
2753.87,150.16
2768.35,154.25
2782.83,162.98
2797.30,171.96
2811.78,180.73
2826.26,188.74
2840.74,195.40
2855.22,200.09
2869.70,202.18
2884.17,201.23
2898.65,197.24
2913.13,190.77
2927.61,182.76
2942.09,174.24
2956.57,166.14
2971.04,159.23
2985.52,154.21
3000.00,151.61
3001.00,151.67
3023.20,154.23
3045.40,158.74
3067.60,164.37
3089.80,170.12
3112.00,174.91
3134.20,177.78
3156.40,178.11
3178.60,175.76
3200.80,171.15
3223.00,165.20
3245.20,159.06
3267.40,153.82
3289.60,150.29
3311.80,148.88
3334.00,149.82
3356.20,153.25
3378.40,159.33
3400.60,168.12
3422.80,179.28
3445.00,191.93
3467.20,204.59
3489.40,210.02
3511.60,215.44
3533.80,222.76
3556.00,225.43
3578.20,223.32
3600.40,217.31
3622.60,208.91
3644.80,199.89
3667.00,191.82
3689.20,185.92
3711.40,183.03
3733.60,183.62
3755.80,187.70
3778.00,194.75
3800.20,203.77
3822.40,213.56
3844.60,222.98
3866.80,231.22
3889.00,237.81
3911.20,242.47
3933.40,245.05
3955.60,245.53
3977.80,244.14
4000.00,241.48
4001.00,238.43
4028.38,235.97
4055.77,234.90
4083.15,235.71
4110.53,238.63
4137.92,243.72
4165.30,250.98
4192.69,260.38
4220.07,271.96
4247.45,286.01
4274.84,303.11
4302.22,324.12
4329.60,349.79
4356.99,380.52
4384.37,416.08
4411.75,455.56
4439.14,476.45
4466.52,497.35
4493.90,539.46
4521.29,580.08
4548.67,618.74
4576.05,657.86
4603.44,704.89
4630.82,774.84
4658.21,892.91
4685.59,1096.18
4712.97,1432.39
4740.36,1953.75
4767.74,2704.87
4795.12,3706.57
4822.51,4940.17
4849.89,6338.38
4877.27,7787.98
4904.66,9145.82
4932.04,10265.17
4959.42,11025.22
4986.81,11354.54
5014.19,11241.77
5041.58,10731.77
5068.96,9910.54
5096.34,8884.71
5123.73,7761.37
5151.11,6632.38
5178.49,5565.64
5205.88,4603.34
5233.26,3765.52
5260.64,3055.96
5288.03,2468.01
5315.41,1989.22
5342.79,1604.60
5370.18,1298.80
5397.56,1057.41
5424.95,867.76
5452.33,719.14
5479.71,602.78
5507.10,511.63
5534.48,475.84
5561.86,440.04
5589.25,383.60
5616.63,338.86
5644.01,303.25
5671.40,274.89
5698.78,252.45
5726.16,235.03
5753.55,222.00
5780.93,212.96
5808.31,207.60
5835.70,205.70
5863.08,207.10
5890.47,211.66
5917.85,219.18
5945.23,229.30
5972.62,241.42
6000.00,254.76
6027.03,268.48
6054.12,281.75
6081.22,293.78
6108.31,303.83
6135.41,311.33
6162.50,315.88
6189.59,317.22
6216.69,315.14
6243.78,309.67
6270.88,301.05
6297.97,289.82
6325.07,276.60
6352.16,261.94
6379.26,246.21
6406.35,229.58
6433.45,212.20
6460.54,194.27
6487.64,176.14
6514.73,158.28
6541.82,141.23
6568.92,125.42
6596.01,111.11
6623.11,104.80
6650.20,98.49
6677.30,87.65
6704.39,78.61
6731.49,71.18
6758.58,64.98
6785.68,59.60
6812.77,54.86
6839.86,50.84
6866.96,47.65
6894.05,45.21
6921.15,43.24
6948.24,41.50
6975.34,39.92
7002.43,38.61
7029.53,37.75
7056.62,37.34
7083.72,37.33
7110.81,37.67
7137.91,38.33
7165.00,39.27
7192.09,40.38
7219.19,41.45
7246.28,42.29
7273.38,42.85
7300.47,43.25
7327.57,43.79
7354.66,44.71
7381.76,45.99
7408.85,47.46
7435.95,48.96
7463.04,50.53
7490.14,52.30
7517.23,54.35
7544.32,56.54
7571.42,58.61
7598.51,60.33
7625.61,61.58
7652.70,62.36
7679.80,62.81
7706.89,62.95
7733.99,63.10
7761.08,63.38
7788.18,63.65
7815.27,63.79
7842.36,63.66
7869.46,63.18
7896.55,62.29
7923.65,60.96
7950.74,59.26
7977.84,57.32
8004.93,55.27
8032.03,53.19
8059.12,51.10
8086.22,49.07
8113.31,47.19
8140.41,45.55
8167.50,44.20
8194.59,43.08
8221.69,42.09
8248.78,41.15
8275.88,40.15
8302.97,39.03
8330.07,37.75
8357.16,36.40
8384.26,35.16
8411.35,34.27
8438.45,33.94
8465.54,34.19
8492.63,34.88
8519.73,35.72
8546.82,36.36
8573.92,36.55
8601.01,36.20
8628.11,35.50
8655.20,34.75
8682.30,34.15
8709.39,33.72
8736.49,33.35
8763.58,32.99
8790.68,32.79
8817.77,32.59
8844.87,32.22
8871.96,32.02
8899.05,32.21
8926.15,32.90
8953.24,34.00
8980.34,35.25
9007.43,36.32
9034.53,37.05
9061.62,37.46
9088.72,37.72
9115.81,38.10
9142.91,38.74
9170.00,39.63
9197.09,40.50
9224.19,41.09
9251.28,41.27
9278.38,41.13
9305.47,40.89
9332.57,40.74
9359.66,40.78
9386.76,41.04
9413.85,41.48
9440.95,41.99
9468.04,42.55
9495.13,43.14
9522.23,43.76
9549.32,44.37
9576.42,44.92
9603.51,45.43
9630.61,46.05
9657.70,46.98
9684.80,48.27
9711.89,49.79
9738.99,51.29
9766.08,52.61
9793.18,53.79
9820.27,54.97
9847.37,56.18
9874.46,57.38
9901.55,57.93
9928.65,58.48
9955.74,59.52
9982.84,60.53
10009.93,61.46
10037.03,62.22
10064.12,62.77
10091.22,63.11
10118.31,63.28
10145.41,63.35
10172.50,63.46
10199.59,63.74
10226.69,64.31
10253.78,65.21
10280.88,66.40
10307.97,67.80
10335.07,69.25
10362.16,70.59
10389.26,71.70
10416.35,72.51
10443.45,72.98
10470.54,73.05
10497.63,72.74
10524.73,72.16
10551.82,71.50
10578.92,70.93
10606.01,70.57
10633.11,70.40
10660.20,70.28
10687.30,69.95
10714.39,69.23
10741.49,68.09
10768.58,66.72
10795.68,65.40
10822.77,64.38
10849.87,63.68
10876.96,63.04
10904.05,62.14
10931.15,60.87
10958.24,59.36
10985.34,58.65
11012.43,57.93
11039.53,56.71
11066.62,55.60
11093.72,54.43
11120.81,53.10
11147.91,51.67
11175.00,50.24
11202.09,48.86
11229.19,47.58
11256.28,46.39
11283.38,45.28
11310.47,44.12
11337.57,42.82
11364.66,41.38
11391.76,39.86
11418.85,38.34
11445.95,36.88
11473.04,35.55
11500.13,34.39
11527.23,33.46
11554.32,32.71
11581.42,32.03
11608.51,31.33
11635.61,30.57
11662.70,29.80
11689.80,29.06
11716.89,28.36
11743.99,27.70
11771.08,27.11
11798.18,26.59
11825.27,26.10
11852.37,25.64
11879.46,25.23
11906.55,24.90
11933.65,24.56
11960.74,24.09
11987.84,23.39
12014.93,22.56
12042.03,21.79
12069.12,21.52
12096.22,21.25
12123.31,20.90
12150.41,20.59
12177.50,20.15
12204.59,19.46
12231.69,18.53
12258.78,17.40
12285.88,16.16
12312.97,14.90
12340.07,13.75
12367.16,12.86
12394.26,12.32
12421.35,12.13
12448.45,12.13
12475.54,12.11
12502.63,11.92
12529.73,11.55
12556.82,11.15
12583.92,10.85
12611.01,10.71
12638.11,10.68
12665.20,10.64
12692.30,10.49
12719.39,10.19
12746.49,9.77
12773.58,9.33
12800.68,8.94
12827.77,8.67
12854.87,8.55
12881.96,8.66
12909.05,8.97
12936.15,9.38
12963.24,9.69
12990.34,9.73
13017.43,9.39
13044.53,8.70
13071.62,7.76
13098.72,6.83
13125.81,6.18
13152.91,6.08
13180.00,5.97
13207.09,6.06
13234.19,6.15
13261.28,6.01
13288.38,5.64
13315.47,5.21
13342.57,4.91
13369.66,4.78
13396.76,4.78
13423.85,4.90
13450.95,5.13
13478.04,5.47
13505.13,5.78
13532.23,5.93
13559.32,5.85
13586.42,5.67
13613.51,5.55
13640.61,5.59
13667.70,5.80
13694.80,6.09
13721.89,6.37
13748.99,6.51
13776.08,6.40
13803.18,5.98
13830.27,5.39
13857.37,4.86
13884.46,4.56
13911.55,4.46
13938.65,4.41
13965.74,4.38
13992.84,4.38
14019.93,4.44
14047.03,4.46
14074.12,4.31
14101.22,3.96
14128.31,3.47
14155.41,2.97
14182.50,2.53
14209.59,2.13
14236.69,1.89
14263.78,1.66
14290.88,1.10
14317.97,0.53
14345.07,0.12
14372.16,0.02
14399.26,0.18
14426.35,0.42
14453.45,0.49
14480.54,0.24
14507.63,-0.35
14534.73,-1.15
14561.82,-1.95
14588.92,-2.62
14616.01,-3.11
14643.11,-3.49
14670.20,-3.82
14697.30,-4.08
14724.39,-4.10
14751.49,-3.76
14778.58,-3.11
14805.68,-2.42
14832.77,-2.02
14859.87,-2.13
14886.96,-2.69
14914.05,-3.39
14941.15,-3.86
14968.24,-3.85
14995.34,-3.41
15022.43,-2.71
15049.53,-1.97
15076.62,-1.28
15103.72,-0.73
15130.81,-0.31
15157.91,0.00
15185.00,3.90
15212.09,4.23
15239.19,4.63
15266.28,5.06
15293.38,5.44
15320.47,5.59
15347.57,5.75
15374.66,6.05
15401.76,6.42
15428.85,6.87
15455.95,7.40
15483.04,7.94
15510.13,8.43
15537.23,8.87
15564.32,9.27
15591.42,9.74
15618.51,10.29
15645.61,10.83
15672.70,11.16
15699.80,11.17
15726.89,10.89
15753.99,10.47
15781.08,9.99
15808.18,9.45
15835.27,8.79
15862.37,8.03
15889.46,7.30
15916.55,6.79
15943.65,6.61
15970.74,6.74
15997.84,7.06
16024.93,7.40
16052.03,7.63
16079.12,7.65
16106.22,7.43
16133.31,6.97
16160.41,6.38
16187.50,5.80
16214.59,5.34
16241.69,5.09
16268.78,5.03
16295.88,5.10
16322.97,5.18
16350.07,5.16
16377.16,5.00
16404.26,4.89
16431.35,4.77
16458.45,4.52
16485.54,4.24
16512.63,3.87
16539.73,3.39
16566.82,2.99
16593.92,2.88
16621.01,3.13
16648.11,3.56
16675.20,3.82
16702.30,3.62
16729.39,2.94
16756.49,2.00
16783.58,1.13
16810.68,0.55
16837.77,0.27
16864.87,0.12
