Size (nt),Intensity
0.95,3.92
1.73,3.93
2.51,3.95
3.29,3.78
4.07,3.67
4.85,3.90
5.63,4.68
6.41,6.21
7.19,9.06
7.97,15.22
8.76,29.49
9.54,60.44
10.32,118.93
11.10,212.64
11.88,337.67
12.66,472.59
13.44,581.84
14.22,630.31
15.00,601.37
16.00,506.23
16.78,377.45
17.56,251.77
18.34,154.13
19.12,91.92
19.90,59.25
20.68,45.27
21.46,40.50
22.24,39.29
23.02,39.31
23.80,39.95
24.58,40.97
25.36,41.94
26.14,42.23
26.92,41.80
27.69,41.37
28.47,39.34
29.25,36.57
30.03,33.76
30.81,31.49
31.59,29.96
32.37,28.93
33.15,28.02
33.93,26.97
34.71,25.75
35.49,24.47
36.27,23.24
37.05,22.08
37.83,20.98
38.61,19.90
39.39,18.80
40.17,17.65
40.95,16.46
41.73,15.26
42.51,14.12
43.29,13.12
44.07,12.29
44.85,11.70
45.63,11.41
46.41,11.40
47.19,11.53
47.97,11.63
48.75,11.61
49.53,11.53
50.31,11.49
51.08,11.50
51.86,11.43
52.64,11.24
53.42,11.05
54.20,10.24
54.98,9.08
55.76,7.87
56.54,6.95
57.32,6.49
58.10,6.44
58.88,6.54
59.66,6.54
60.44,6.30
61.22,5.86
62.00,5.37
62.78,5.04
63.56,4.92
64.34,4.96
65.12,5.03
65.90,5.07
66.68,5.08
67.46,5.09
68.24,5.03
69.02,4.82
69.80,4.45
70.58,4.14
71.36,4.19
72.14,4.74
72.92,5.64
73.69,6.52
74.47,7.08
75.25,7.21
76.03,7.00
76.81,6.61
77.59,6.40
78.37,6.19
79.15,5.94
79.93,5.98
80.71,6.31
81.49,6.83
82.27,7.41
83.05,7.98
83.83,8.51
84.61,8.93
85.39,9.15
86.17,9.11
86.95,8.89
87.73,8.67
88.51,8.65
89.29,8.98
90.07,9.65
90.85,10.49
91.63,11.23
92.41,11.65
93.19,11.65
93.97,11.28
94.75,10.71
95.53,10.22
96.31,10.16
97.08,10.69
97.86,11.70
98.64,12.85
99.42,13.78
100.20,14.39
100.98,14.82
101.76,15.35
102.54,16.21
103.32,16.82
104.10,17.44
104.88,18.87
105.66,20.20
106.44,21.17
107.22,21.74
108.00,22.04
108.78,22.23
109.56,22.32
110.34,22.24
111.12,21.88
111.90,21.24
112.68,20.44
113.46,19.75
114.24,19.45
115.02,19.79
115.80,20.79
116.58,22.26
117.36,23.84
118.14,25.20
118.92,26.09
119.69,26.46
120.47,26.42
121.25,26.20
122.03,26.02
122.81,25.98
123.59,26.04
124.37,26.06
125.15,25.92
125.93,25.64
126.71,25.40
127.49,25.33
128.27,25.37
129.05,25.41
129.83,25.43
130.61,25.22
131.39,24.71
132.17,24.01
132.95,23.24
133.73,22.56
134.51,22.07
135.29,21.71
136.07,21.30
136.85,20.66
137.63,19.72
138.41,18.69
139.19,17.91
139.97,17.67
140.75,17.96
141.53,18.57
142.31,19.25
143.08,19.89
143.86,20.48
144.64,20.99
145.42,21.43
146.20,21.93
146.98,22.94
147.76,25.14
148.54,29.29
149.32,36.41
150.10,48.21
150.88,67.48
151.66,97.69
152.44,141.14
153.22,196.47
154.00,226.71
154.78,256.96
155.56,311.77
156.34,350.01
157.12,365.57
157.90,359.43
158.68,338.14
159.46,309.55
160.24,279.01
161.02,248.17
161.80,216.44
162.58,183.35
163.36,149.85
164.14,118.10
164.92,90.31
165.69,67.91
166.47,51.20
167.25,39.61
168.03,32.13
168.81,27.59
169.59,25.02
170.37,23.77
171.15,23.60
171.93,24.53
172.71,26.72
173.49,30.26
174.27,34.91
175.05,39.93
175.83,44.03
176.61,45.86
177.39,44.71
178.17,40.93
178.95,38.33
179.73,35.73
180.51,30.54
181.29,26.36
182.07,23.64
182.85,22.36
183.63,22.30
184.41,23.12
185.19,24.42
185.97,25.65
186.75,26.25
187.53,25.82
188.31,24.32
189.08,22.05
189.86,19.49
190.64,17.04
191.42,14.96
192.20,13.39
192.98,12.34
193.76,11.78
194.54,11.65
195.32,11.86
196.10,12.33
196.88,12.95
197.66,13.59
198.44,14.03
199.22,14.06
200.00,13.58
201.00,12.72
203.35,11.80
205.71,11.15
208.06,10.98
210.42,11.29
212.77,11.61
215.13,11.92
217.48,12.62
219.83,13.14
222.19,13.32
224.54,13.20
226.90,12.93
229.25,12.69
231.61,12.55
233.96,12.51
236.31,12.51
238.67,12.45
241.02,12.25
243.38,11.90
245.73,11.56
248.09,11.42
250.44,11.60
252.80,12.01
255.15,12.40
257.50,12.56
259.86,12.45
262.21,12.23
264.57,12.06
266.92,12.03
269.28,12.05
271.63,12.06
273.98,12.07
276.34,12.16
278.69,12.40
281.05,12.75
283.40,13.17
285.76,13.67
288.11,14.04
290.46,14.41
292.82,15.60
295.17,17.43
297.53,19.96
299.88,23.08
302.24,26.53
304.59,30.00
306.94,33.17
309.30,35.70
311.65,37.22
314.01,37.39
316.36,36.14
318.72,33.78
321.07,30.86
323.43,28.01
325.78,25.66
328.13,24.01
330.49,23.05
332.84,22.59
335.20,22.45
337.55,22.46
339.91,22.58
342.26,22.80
344.61,23.11
346.97,23.37
349.32,23.42
351.68,23.13
354.03,22.56
356.39,21.87
358.74,21.21
361.09,20.64
363.45,20.06
365.80,19.70
368.16,19.34
370.51,18.44
372.87,17.48
375.22,16.63
377.57,16.03
379.93,15.67
382.28,15.47
384.64,15.33
386.99,15.11
389.35,14.72
391.70,14.15
394.06,13.53
396.41,13.13
398.76,13.09
401.12,13.33
403.47,13.59
405.83,13.69
408.18,13.65
410.54,13.69
412.89,14.05
415.24,14.82
417.60,15.90
419.95,17.04
422.31,18.03
424.66,18.78
427.02,19.39
429.37,19.95
431.72,20.47
434.08,20.91
436.43,21.23
438.79,21.44
441.14,21.48
443.50,21.52
445.85,21.46
448.20,21.26
450.56,21.05
452.91,21.00
455.27,21.23
457.62,21.66
459.98,22.07
462.33,22.16
464.69,21.76
467.04,20.97
469.39,20.11
471.75,19.47
474.10,19.13
476.46,18.92
478.81,18.71
481.17,18.55
483.52,18.61
485.87,18.95
488.23,19.40
490.58,19.67
492.94,19.54
495.29,19.01
497.65,18.26
500.00,17.61
501.00,17.35
505.42,17.58
509.83,18.16
514.25,18.83
518.66,19.37
523.08,19.79
527.50,20.34
531.91,20.86
536.33,21.37
540.74,23.11
545.16,25.51
549.58,28.23
553.99,30.70
558.41,32.33
562.82,32.80
567.24,32.17
571.65,30.86
576.07,29.47
580.49,28.59
584.90,28.66
589.32,29.90
593.73,32.17
598.15,34.97
602.57,37.46
606.98,38.70
611.40,38.00
615.81,35.26
620.23,31.02
624.65,26.24
629.06,21.87
633.48,18.52
637.89,16.36
642.31,15.22
646.73,14.83
651.14,14.95
655.56,15.43
659.97,16.18
664.39,17.10
668.81,18.01
673.22,18.35
677.64,18.70
682.05,19.09
686.47,19.24
690.88,19.36
695.30,19.65
699.72,20.18
704.13,20.86
708.55,21.49
712.96,21.97
717.38,22.33
721.80,22.69
726.21,23.13
730.63,23.62
735.04,24.08
739.46,24.42
743.88,24.64
748.29,24.78
752.71,24.98
757.12,25.41
761.54,26.18
765.96,27.18
770.37,28.21
774.79,29.01
779.20,29.47
783.62,29.61
788.04,29.51
792.45,29.25
796.87,28.94
801.28,28.63
805.70,28.37
810.12,28.18
814.53,28.16
818.95,28.27
823.36,28.39
827.78,28.91
832.19,29.64
836.61,30.50
841.03,31.47
845.44,32.55
849.86,33.68
854.27,34.72
858.69,35.47
863.11,35.89
867.52,36.05
871.94,36.05
876.35,35.95
880.77,35.72
885.19,35.22
889.60,34.40
894.02,33.39
898.43,32.48
902.85,32.01
907.27,32.17
911.68,32.89
916.10,33.95
920.51,35.12
924.93,36.34
929.35,37.69
933.76,39.30
938.18,41.21
942.59,43.32
947.01,45.35
951.42,47.06
955.84,48.39
960.26,48.93
964.67,49.48
969.09,50.66
973.50,52.29
977.92,54.57
982.34,57.41
986.75,60.55
991.17,63.69
995.58,66.62
1000.00,69.23
1001.00,71.39
1008.13,72.91
1015.26,73.61
1022.39,73.41
1029.51,72.46
1036.64,71.10
1043.77,69.74
1050.90,68.68
1058.03,67.95
1065.16,67.33
1072.29,66.59
1079.41,65.62
1086.54,64.32
1093.67,62.55
1100.80,60.20
1107.93,57.37
1115.06,54.40
1122.19,51.71
1129.31,49.63
1136.44,48.18
1143.57,47.21
1150.70,46.46
1157.83,45.74
1164.96,45.34
1172.09,44.94
1179.21,44.09
1186.34,43.24
1193.47,42.50
1200.60,42.02
1207.73,42.00
1214.86,42.62
1221.99,43.92
1229.11,45.73
1236.24,47.83
1243.37,50.00
1250.50,52.08
1257.63,53.89
1264.76,55.27
1271.89,56.13
1279.01,56.53
1286.14,56.69
1293.27,56.85
1300.40,57.18
1307.53,57.74
1314.66,58.56
1321.79,59.64
1328.91,60.93
1336.04,62.29
1343.17,63.70
1350.30,65.33
1357.43,67.40
1364.56,69.94
1371.69,72.69
1378.81,75.34
1385.94,77.77
1393.07,78.96
1400.20,80.15
1407.33,82.82
1414.46,85.93
1421.59,89.36
1428.71,92.73
1435.84,95.74
1442.97,98.28
1450.10,100.42
1457.23,102.28
1464.36,103.94
1471.49,105.38
1478.61,106.55
1485.74,107.41
1492.87,108.00
1500.00,108.36
1501.00,108.53
1509.91,108.43
1518.82,107.97
1527.73,107.19
1536.64,106.22
1545.55,105.10
1554.46,103.76
1563.37,102.10
1572.29,100.11
1581.20,97.97
1590.11,95.89
1599.02,94.10
1607.93,92.78
1616.84,92.10
1625.75,92.21
1634.66,93.14
1643.57,94.85
1652.48,96.03
1661.39,97.22
1670.30,100.19
1679.21,103.81
1688.12,108.25
1697.04,113.81
1705.95,120.86
1714.86,129.86
1723.77,141.51
1732.68,156.98
1741.59,178.40
1750.50,209.60
1759.41,256.93
1768.32,330.20
1777.23,443.15
1786.14,612.98
1795.05,858.41
1803.96,1195.98
1812.87,1635.25
1821.79,2173.78
1830.70,2793.40
1839.61,3458.95
1848.52,4120.71
1857.43,4720.54
1866.34,5200.74
1875.25,5513.58
1884.16,5629.25
1893.07,5540.50
1901.98,5263.10
1910.89,4832.17
1919.80,4295.37
1928.71,3704.84
1937.62,3407.25
1946.54,3109.65
1955.45,2550.12
1964.36,2054.53
1973.27,1638.32
1982.18,1305.32
1991.09,1050.55
2000.00,863.58
2001.00,731.65
2015.48,641.94
2029.96,582.95
2044.43,545.08
2058.91,520.68
2073.39,503.85
2087.87,490.17
2102.35,476.54
2116.83,461.16
2131.30,443.45
2145.78,423.78
2160.26,403.03
2174.74,382.04
2189.22,361.45
2203.70,341.65
2218.17,322.92
2232.65,305.57
2247.13,289.87
2261.61,275.98
2276.09,263.88
2290.57,253.40
2305.04,244.43
2319.52,237.03
2334.00,231.50
2348.48,229.80
2362.96,228.10
2377.43,226.92
2391.91,227.77
2406.39,230.21
2420.87,233.65
2435.35,237.43
2449.83,240.87
2464.30,243.36
2478.78,244.50
2493.26,244.13
2507.74,242.41
2522.22,239.74
2536.70,236.62
2551.17,233.48
2565.65,230.56
2580.13,227.97
2594.61,225.76
2609.09,224.05
2623.57,223.03
2638.04,223.00
2652.52,224.27
2667.00,227.11
2681.48,231.68
2695.96,238.02
2710.43,246.07
2724.91,255.62
2739.39,266.30
2753.87,277.54
2768.35,288.64
2782.83,298.79
2797.30,307.17
2811.78,312.97
2826.26,314.29
2840.74,315.62
2855.22,314.95
2869.70,311.31
2884.17,305.41
2898.65,297.98
2913.13,289.69
2927.61,281.20
2942.09,273.38
2956.57,267.30
2971.04,263.93
2985.52,263.85
3000.00,266.91
3001.00,272.27
3023.20,278.59
3045.40,284.44
3067.60,288.69
3089.80,290.69
3112.00,290.36
3134.20,288.03
3156.40,284.29
3178.60,279.81
3200.80,275.27
3223.00,271.40
3245.20,268.99
3267.40,268.80
3289.60,271.51
3311.80,277.68
3334.00,287.64
3356.20,301.23
3378.40,317.52
3400.60,334.74
3422.80,342.67
3445.00,350.61
3467.20,362.89
3489.40,370.08
3511.60,371.74
3533.80,368.47
3556.00,361.67
3578.20,353.15
3600.40,344.85
3622.60,338.62
3644.80,335.98
3667.00,337.89
3689.20,344.64
3711.40,355.75
3733.60,370.16
3755.80,386.50
3778.00,403.24
3800.20,418.88
3822.40,432.05
3844.60,441.71
3866.80,447.39
3889.00,449.24
3911.20,447.97
3933.40,444.74
3955.60,440.89
3977.80,437.72
4000.00,436.17
4001.00,436.81
4028.38,440.04
4055.77,446.35
4083.15,456.24
4110.53,470.11
4137.92,488.16
4165.30,499.29
4192.69,510.42
4220.07,536.99
4247.45,568.30
4274.84,605.01
4302.22,647.78
4329.60,696.77
4356.99,751.19
4384.37,809.25
4411.75,868.63
4439.14,927.48
4466.52,985.96
4493.90,1048.56
4521.29,1127.26
4548.67,1245.39
4576.05,1441.13
4603.44,1768.79
4630.82,2295.59
4658.21,3091.96
4685.59,4214.76
4712.97,5685.44
4740.36,7469.15
4767.74,9463.22
4795.12,11502.69
4822.51,13385.09
4849.89,14908.74
4877.27,15913.19
4904.66,16309.44
4932.04,16092.04
4959.42,15331.48
4986.81,14151.83
5014.19,12701.54
5041.58,11913.93
5068.96,11126.32
5096.34,9549.52
5123.73,8062.29
5151.11,6722.02
5178.49,5556.58
5205.88,4571.42
5233.26,3757.25
5260.64,3096.62
5288.03,2568.73
5315.41,2152.46
5342.79,1828.20
5370.18,1578.64
5397.56,1389.00
5424.95,1246.73
5452.33,1141.25
5479.71,1063.85
5507.10,1007.57
5534.48,967.05
5561.86,938.12
5589.25,917.51
5616.63,902.70
5644.01,891.84
5671.40,883.76
5698.78,877.82
5726.16,873.70
5753.55,871.23
5780.93,870.46
5808.31,871.77
5835.70,875.82
5863.08,883.33
5890.47,894.65
5917.85,909.57
5945.23,918.41
5972.62,927.24
6000.00,946.32
6027.03,965.13
6054.12,981.76
6081.22,994.19
6108.31,1000.62
6135.41,999.84
6162.50,991.51
6189.59,975.99
6216.69,953.92
6243.78,925.94
6270.88,892.64
6297.97,854.67
6325.07,812.83
6352.16,768.05
6379.26,721.45
6406.35,674.32
6433.45,627.92
6460.54,583.14
6487.64,540.45
6514.73,500.05
6541.82,462.10
6568.92,426.80
6596.01,394.40
6623.11,365.00
6650.20,338.56
6677.30,314.87
6704.39,293.63
6731.49,274.45
6758.58,257.00
6785.68,241.05
6812.77,233.76
6839.86,226.48
6866.96,213.20
6894.05,201.09
6921.15,189.97
6948.24,179.67
6975.34,170.13
7002.43,161.36
7029.53,153.42
7056.62,146.33
7083.72,140.06
7110.81,134.54
7137.91,129.69
7165.00,125.38
7192.09,121.44
7219.19,117.83
7246.28,114.59
7273.38,111.76
7300.47,109.21
7327.57,106.68
7354.66,104.01
7381.76,101.29
7408.85,98.78
7435.95,96.69
7463.04,95.04
7490.14,93.74
7517.23,92.73
7544.32,92.01
7571.42,91.67
7598.51,91.70
7625.61,91.94
7652.70,92.13
7679.80,92.00
7706.89,91.69
7733.99,91.39
7761.08,90.36
7788.18,89.11
7815.27,87.93
7842.36,87.02
7869.46,86.36
7896.55,85.77
7923.65,85.00
7950.74,83.89
7977.84,82.48
8004.93,80.99
8032.03,79.73
8059.12,78.97
8086.22,78.86
8113.31,79.35
8140.41,80.20
8167.50,81.04
8194.59,81.55
8221.69,81.59
8248.78,81.27
8275.88,80.86
8302.97,80.60
8330.07,80.61
8357.16,80.87
8384.26,81.34
8411.35,81.90
8438.45,82.42
8465.54,82.68
8492.63,82.61
8519.73,82.25
8546.82,81.78
8573.92,81.58
8601.01,81.38
8628.11,81.23
8655.20,81.49
8682.30,82.21
8709.39,83.27
8736.49,84.36
8763.58,85.18
8790.68,85.56
8817.77,85.53
8844.87,85.26
8871.96,84.96
8899.05,84.81
8926.15,84.92
8953.24,85.33
8980.34,85.96
9007.43,86.72
9034.53,87.46
9061.62,88.12
9088.72,88.73
9115.81,89.42
9142.91,90.31
9170.00,91.45
9197.09,92.81
9224.19,94.38
9251.28,96.14
9278.38,98.03
9305.47,99.97
9332.57,101.90
9359.66,103.84
9386.76,105.84
9413.85,108.02
9440.95,110.42
9468.04,111.70
9495.13,112.99
9522.23,115.61
9549.32,118.12
9576.42,120.36
9603.51,122.19
9630.61,123.56
9657.70,124.59
9684.80,125.51
9711.89,126.51
9738.99,127.62
9766.08,128.75
9793.18,129.84
9820.27,130.99
9847.37,132.30
9874.46,133.66
9901.55,134.78
9928.65,135.31
9955.74,135.17
9982.84,134.51
10009.93,133.60
10037.03,132.69
10064.12,131.92
10091.22,131.33
10118.31,130.84
10145.41,130.23
10172.50,129.27
10199.59,127.80
10226.69,125.85
10253.78,123.59
10280.88,121.25
10307.97,118.99
10335.07,117.91
10362.16,116.82
10389.26,114.68
10416.35,112.52
10443.45,110.31
10470.54,108.00
10497.63,105.59
10524.73,103.16
10551.82,100.86
10578.92,98.83
10606.01,97.13
10633.11,95.65
10660.20,94.19
10687.30,92.53
10714.39,90.48
10741.49,88.02
10768.58,85.29
10795.68,82.49
10822.77,79.78
10849.87,77.22
10876.96,74.82
10904.05,72.62
10931.15,70.65
10958.24,68.87
10985.34,67.24
11012.43,65.73
11039.53,64.37
11066.62,63.08
11093.72,61.76
11120.81,60.32
11147.91,58.80
11175.00,57.27
11202.09,55.73
11229.19,54.91
11256.28,54.09
11283.38,52.24
11310.47,50.29
11337.57,48.51
11364.66,47.22
11391.76,46.57
11418.85,46.36
11445.95,46.12
11473.04,45.43
11500.13,44.18
11527.23,42.59
11554.32,41.05
11581.42,39.77
11608.51,38.76
11635.61,37.90
11662.70,37.09
11689.80,36.34
11716.89,35.75
11743.99,35.32
11771.08,34.92
11798.18,34.41
11825.27,33.81
11852.37,33.33
11879.46,33.17
11906.55,33.27
11933.65,33.33
11960.74,33.02
11987.84,32.27
12014.93,31.27
12042.03,30.24
12069.12,29.29
12096.22,28.84
12123.31,28.40
12150.41,27.54
12177.50,26.77
12204.59,26.15
12231.69,25.81
12258.78,25.82
12285.88,26.18
12312.97,26.70
12340.07,27.07
12367.16,27.02
12394.26,26.42
12421.35,25.39
12448.45,24.22
12475.54,23.21
12502.63,22.54
12529.73,22.20
12556.82,22.02
12583.92,21.85
12611.01,21.63
12638.11,21.41
12665.20,21.23
12692.30,21.00
12719.39,20.57
12746.49,19.81
12773.58,18.82
12800.68,17.86
12827.77,17.19
12854.87,16.84
12881.96,16.63
12909.05,16.41
12936.15,16.18
12963.24,16.06
12990.34,16.06
13017.43,16.06
13044.53,16.02
13071.62,15.80
13098.72,15.44
13125.81,15.14
13152.91,15.02
13180.00,14.95
13207.09,14.68
13234.19,14.11
13261.28,13.36
13288.38,12.73
13315.47,12.43
13342.57,12.52
13369.66,12.88
13396.76,13.34
13423.85,13.71
13450.95,13.85
13478.04,13.70
13505.13,13.34
13532.23,12.91
13559.32,12.56
13586.42,12.33
13613.51,12.15
13640.61,11.99
13667.70,11.89
13694.80,11.94
13721.89,12.22
13748.99,12.72
13776.08,13.35
13803.18,13.96
13830.27,14.45
13857.37,14.60
13884.46,14.75
13911.55,14.88
13938.65,14.93
13965.74,15.08
13992.84,15.52
14019.93,16.19
14047.03,16.85
14074.12,17.15
14101.22,16.94
14128.31,16.33
14155.41,15.61
14182.50,15.02
14209.59,14.69
14236.69,14.66
14263.78,14.93
14290.88,15.47
14317.97,16.13
14345.07,16.67
14372.16,16.81
14399.26,16.48
14426.35,15.77
14453.45,14.92
14480.54,14.11
14507.63,13.45
14534.73,12.97
14561.82,12.71
14588.92,12.67
14616.01,12.79
14643.11,12.91
14670.20,12.88
14697.30,12.62
14724.39,12.24
14751.49,12.05
14778.58,11.86
14805.68,11.50
14832.77,11.10
14859.87,10.59
14886.96,9.98
14914.05,9.33
14941.15,8.68
14968.24,8.04
14995.34,7.42
15022.43,6.83
15049.53,6.30
15076.62,5.84
15103.72,5.41
15130.81,4.94
15157.91,4.46
15185.00,4.04
15212.09,3.75
15239.19,3.56
15266.28,3.37
15293.38,3.18
15320.47,3.02
15347.57,2.91
15374.66,2.72
15401.76,2.30
15428.85,1.62
15455.95,0.85
15483.04,0.25
15510.13,-0.02
15537.23,0.00
15564.32,0.00
15591.42,0.00
15618.51,0.00
15645.61,0.00
15672.70,0.00
15699.80,0.00
15726.89,0.00
15753.99,0.00
15781.08,0.00
15808.18,0.00
15835.27,0.00
15862.37,0.00
15889.46,0.00
15916.55,0.00
15943.65,0.00
15970.74,0.00
15997.84,0.00
16024.93,0.00
16052.03,0.06
16079.12,0.23
16106.22,0.44
16133.31,0.65
16160.41,0.84
16187.50,1.03
16214.59,1.17
16241.69,1.19
16268.78,1.03
16295.88,0.72
16322.97,0.40
16350.07,0.17
16377.16,0.04
16404.26,0.00
16431.35,0.10
16458.45,0.32
16485.54,0.66
16512.63,0.87
16539.73,1.07
16566.82,1.43
16593.92,1.65
16621.01,1.79
16648.11,1.99
16675.20,2.37
16702.30,2.88
16729.39,3.39
16756.49,3.75
16783.58,4.04
16810.68,4.39
16837.77,4.91
16864.87,5.49
